Username, User ID, Session ID,Session Tag,Date,Shape (rows x columns),Duration (ms),Starting Time,Ending Time,Resolution (ms),Resolution (Hz),Unit Measure,Starting Timestamp,Ending Timestamp
user,12345678,bcaf1cfe-6f09-46fe-88be-4cdd6b2c4cad,eog1,11-09-2020_16-28-50,6664x6,26661,16:28:14.246,16:28:40.937,4.1152263,243.0,µV,0,1599834520937,
Pkg ID,Time,Ch-1,Ch-2,Ch-3,Ch-4,Ch-5,Ch-6,Ch-7,Ch-8
2,0.0,7.104618,7.311728,-1232.8209,-1232.3102,-1233.0575,-1235.7258,
3,3.0,7.101042,7.307258,-1232.9216,-1232.3251,-1233.0659,-1235.7357,
4,4.0,7.08942,7.304576,-1232.6853,-1232.3385,-1233.0784,-1235.7426,
5,4.0,7.093294,7.306364,-1232.9055,-1232.3156,-1233.0626,-1235.7294,
6,5.0,7.095082,7.306066,-1232.7694,-1232.3197,-1233.0697,-1235.732,
7,6.0,7.098658,7.30398,-1233.202,-1232.3259,-1233.0763,-1235.7345,
-8,48.0,7.102532,7.308152,-1233.0963,-1232.3024,-1233.0653,-1235.7273,
-7,50.0,7.1004457,7.30994,-1232.9592,-1232.3069,-1233.0573,-1235.7413,
-6,82.0,7.1004457,7.304576,-1233.0012,-1232.3328,-1233.0692,-1235.7535,
-5,83.0,7.10134,7.305768,-1233.1383,-1232.3313,-1233.0662,-1235.7502,
-4,84.0,7.101042,7.309344,-1233.1425,-1232.3182,-1233.0719,-1235.7368,
-3,84.0,7.094188,7.307556,-1233.0817,-1232.311,-1233.0477,-1235.7056,
-2,85.0,7.092102,7.309642,-1233.0507,-1232.3284,-1233.0612,-1235.7366,
-1,86.0,7.095678,7.304874,-1233.1141,-1232.2943,-1233.0426,-1235.724,
0,86.0,7.091506,7.3024898,-1233.2426,-1232.3185,-1233.062,-1235.7339,
1,87.0,7.095082,7.305768,-1233.1898,-1232.328,-1233.065,-1235.7378,
2,88.0,7.09538,7.31292,-1233.2235,-1232.3304,-1233.0688,-1235.7494,
3,90.0,7.09538,7.3147078,-1233.1487,-1232.3257,-1233.0674,-1235.736,
4,91.0,7.096572,7.313516,-1233.1472,-1232.3162,-1233.0697,-1235.7324,
5,92.0,7.095976,7.30398,-1233.1359,-1232.3182,-1233.0769,-1235.7432,
6,92.0,7.091208,7.301894,-1233.2372,-1232.3278,-1233.0564,-1235.7422,
7,93.0,7.091506,7.298616,-1233.2146,-1232.3152,-1233.0688,-1235.7434,
-8,94.0,7.090016,7.294742,-1233.2402,-1232.329,-1233.0676,-1235.7458,
-7,105.0,7.088526,7.290868,-1233.1606,-1232.3209,-1233.0554,-1235.7312,
-6,107.0,7.090314,7.292656,-1233.1929,-1232.3188,-1233.0525,-1235.7312,
-5,108.0,7.092996,7.29504,-1233.2196,-1232.3418,-1233.0814,-1235.744,
-4,109.0,7.092698,7.29504,-1233.1493,-1232.3215,-1233.0602,-1235.7288,
-3,109.0,7.0882277,7.291464,-1233.1807,-1232.3364,-1233.0831,-1235.749,
-2,110.0,7.093294,7.298318,-1233.1931,-1232.317,-1233.0587,-1235.7192,
-1,111.0,7.091506,7.294742,-1233.1737,-1232.3176,-1233.0632,-1235.7223,
0,124.0,7.086738,7.294742,-1233.2107,-1232.3098,-1233.054,-1235.7347,
1,125.0,7.083162,7.286994,-1233.2452,-1232.3143,-1233.0486,-1235.7238,
2,126.0,7.085844,7.2902718,-1233.2268,-1232.3497,-1233.0757,-1235.7568,
3,127.0,7.088526,7.295338,-1233.2465,-1232.3224,-1233.0715,-1235.7432,
4,127.0,7.090612,7.299808,-1233.2504,-1232.3373,-1233.0793,-1235.7628,
5,139.0,7.090314,7.293252,-1233.2239,-1232.3352,-1233.087,-1235.7413,
6,141.0,7.0882277,7.29206,-1233.2262,-1232.3179,-1233.0653,-1235.7294,
7,142.0,7.0882277,7.295934,-1233.318,-1232.3477,-1233.0891,-1235.756,
-8,143.0,7.0882277,7.29206,-1233.2578,-1232.3123,-1233.0521,-1235.7297,
-7,143.0,7.077798,7.28312,-1233.2572,-1232.3295,-1233.0748,-1235.7509,
-6,146.0,7.07899,7.2902718,-1233.2688,-1232.329,-1233.0814,-1235.7509,
-5,147.0,7.089718,7.29206,-1233.1824,-1232.3125,-1233.0742,-1235.7357,
-4,148.0,7.088824,7.288484,-1233.2059,-1232.3269,-1233.0829,-1235.7583,
-3,149.0,7.088526,7.288782,-1233.227,-1232.3188,-1233.0796,-1235.7455,
-2,150.0,7.087036,7.286398,-1233.1737,-1232.3114,-1233.0599,-1235.7411,
-1,166.0,7.087334,7.295338,-1233.2024,-1232.3236,-1233.0674,-1235.7476,
0,167.0,7.085844,7.28759,-1233.2324,-1232.34,-1233.0769,-1235.7521,
1,168.0,7.08346,7.287888,-1233.2646,-1232.3615,-1233.0942,-1235.7682,
2,173.0,7.079884,7.281034,-1233.282,-1232.3662,-1233.112,-1235.7872,
3,175.0,7.084354,7.281928,-1233.1973,-1232.3406,-1233.099,-1235.7736,
4,191.0,7.08197,7.286696,-1233.2355,-1232.3584,-1233.098,-1235.7858,
5,192.0,7.084652,7.288484,-1233.2301,-1232.3414,-1233.0814,-1235.7565,
6,192.0,7.083758,7.288186,-1233.2217,-1232.3528,-1233.1019,-1235.7723,
7,193.0,7.084354,7.286398,-1233.2539,-1232.3555,-1233.0953,-1235.7684,
-8,217.0,7.083758,7.289378,-1233.2709,-1232.3501,-1233.087,-1235.7645,
-7,218.0,7.082864,7.29206,-1233.2644,-1232.3608,-1233.0957,-1235.78,
-6,219.0,7.089718,7.288186,-1233.2498,-1232.334,-1233.0862,-1235.7443,
-5,220.0,7.086142,7.281034,-1233.2686,-1232.3387,-1233.0957,-1235.7607,
-4,221.0,7.086738,7.289378,-1233.2277,-1232.3253,-1233.0793,-1235.7529,
-3,225.0,7.083162,7.28759,-1233.1993,-1232.3286,-1233.0742,-1235.7318,
-2,226.0,7.0760098,7.277756,-1233.2196,-1232.3528,-1233.0912,-1235.7556,
-1,249.0,7.076606,7.279246,-1233.2653,-1232.3486,-1233.081,-1235.7744,
0,251.0,7.08197,7.281928,-1233.273,-1232.3439,-1233.0897,-1235.7607,
1,253.0,7.076606,7.276564,-1233.2489,-1232.3495,-1233.0831,-1235.7693,
2,253.0,7.085248,7.289676,-1233.2574,-1232.3423,-1233.0852,-1235.755,
3,257.0,7.084652,7.285206,-1233.226,-1232.3373,-1233.0903,-1235.7389,
4,259.0,7.08048,7.289378,-1233.2634,-1232.342,-1233.0939,-1235.7535,
5,274.0,7.078692,7.285504,-1233.2634,-1232.3625,-1233.1046,-1235.7753,
6,275.0,7.075712,7.27865,-1233.2659,-1232.3516,-1233.1124,-1235.7717,
7,276.0,7.080182,7.281034,-1233.2303,-1232.3406,-1233.1085,-1235.7794,
-8,277.0,7.080778,7.277458,-1233.2316,-1232.3528,-1233.1172,-1235.7777,
-7,277.0,7.078394,7.27716,-1233.2468,-1232.3447,-1233.0889,-1235.7595,
-6,302.0,7.085546,7.29057,-1233.234,-1232.3364,-1233.0966,-1235.7614,
-5,303.0,7.08495,7.285504,-1233.2783,-1232.3445,-1233.0978,-1235.7672,
-4,304.0,7.08346,7.273882,-1233.2458,-1232.3534,-1233.11,-1235.7738,
-3,305.0,7.0822678,7.285802,-1233.2247,-1232.365,-1233.1118,-1235.7767,
-2,306.0,7.08048,7.282822,-1233.2847,-1232.3524,-1233.1085,-1235.7742,
-1,307.0,7.079884,7.280736,-1233.2742,-1232.3462,-1233.1064,-1235.7854,
0,308.0,7.075116,7.2717957,-1233.2607,-1232.365,-1233.1145,-1235.7899,
1,310.0,7.073626,7.27716,-1233.3043,-1232.3733,-1233.118,-1235.797,
2,312.0,7.080182,7.27567,-1233.2888,-1232.3894,-1233.1183,-1235.7976,
3,313.0,7.07452,7.260174,-1233.3263,-1232.3739,-1233.124,-1235.7976,
4,325.0,7.070646,7.253618,-1233.3007,-1232.3945,-1233.1398,-1235.8131,
5,326.0,7.085248,7.281928,-1233.2432,-1232.3772,-1233.11,-1235.7819,
6,327.0,7.085248,7.276564,-1233.2653,-1232.3807,-1233.1315,-1235.7959,
7,328.0,7.084056,7.26524,-1233.2917,-1232.4127,-1233.1439,-1235.8274,
-8,352.0,7.090016,7.26524,-1233.2578,-1232.3927,-1233.141,-1235.8135,
-7,353.0,7.085248,7.262558,-1233.268,-1232.39,-1233.1279,-1235.8075,
-6,355.0,7.075712,7.240804,-1233.2634,-1232.4076,-1233.141,-1235.8259,
-5,355.0,7.06558,7.234546,-1233.3054,-1232.4117,-1233.166,-1235.842,
-4,356.0,7.062302,7.230076,-1233.3627,-1232.4258,-1233.1699,-1235.8501,
-3,357.0,7.07452,7.232162,-1233.3337,-1232.4229,-1233.1658,-1235.837,
-2,358.0,7.068858,7.209812,-1233.3546,-1232.4568,-1233.186,-1235.8549,
-1,359.0,7.063494,7.21458,-1233.3333,-1232.4413,-1233.1836,-1235.8519,
0,361.0,7.059918,7.207428,-1233.3759,-1232.4711,-1233.2095,-1235.871,
1,364.0,7.061706,7.190144,-1233.3931,-1232.4779,-1233.2256,-1235.8975,
2,365.0,7.045912,7.181502,-1233.4086,-1232.4777,-1233.2336,-1235.8999,
3,376.0,7.048594,7.184482,-1233.4137,-1232.481,-1233.2394,-1235.8987,
4,377.0,7.052766,7.174648,-1233.4548,-1232.4806,-1233.2303,-1235.8873,
5,378.0,7.047402,7.16392,-1233.4452,-1232.5039,-1233.2554,-1235.9156,
6,378.0,7.037866,7.151702,-1233.4125,-1232.5107,-1233.2596,-1235.9415,
7,379.0,7.02982,7.145742,-1233.4377,-1232.5271,-1233.2867,-1235.9541,
-8,380.0,7.024754,7.13859,-1233.4485,-1232.5348,-1233.2808,-1235.9386,
-7,403.0,7.019092,7.125478,-1233.4512,-1232.536,-1233.2781,-1235.9452,
-6,405.0,7.018496,7.11922,-1233.4799,-1232.562,-1233.295,-1235.9725,
-5,405.0,7.021476,7.122498,-1233.4807,-1232.567,-1233.3049,-1235.9762,
-4,409.0,7.019986,7.11773,-1233.5012,-1232.5575,-1233.3076,-1235.9854,
-3,411.0,7.005086,7.10581,-1233.5322,-1232.5854,-1233.3451,-1236.0072,
-2,425.0,6.995848,7.09687,-1233.4962,-1232.5873,-1233.3416,-1236.0056,
-1,426.0,6.989888,7.087334,-1233.5529,-1232.5951,-1233.3395,-1236.0087,
0,427.0,6.987802,7.080182,-1233.5529,-1232.6061,-1233.3564,-1236.0161,
1,428.0,6.99406,7.075414,-1233.5132,-1232.6016,-1233.3442,-1236.0143,
2,457.0,6.993762,7.076308,-1233.5588,-1232.6222,-1233.3529,-1236.0286,
3,463.0,6.976478,7.059918,-1233.5513,-1232.623,-1233.3776,-1236.0426,
4,465.0,6.966346,7.045018,-1233.5659,-1232.6532,-1233.377,-1236.0474,
5,466.0,6.965452,7.011046,-1233.6056,-1232.6898,-1233.4131,-1236.0906,
6,466.0,6.960088,7.021178,-1233.6089,-1232.6871,-1233.4292,-1236.1005,
7,467.0,6.943102,6.996742,-1233.6602,-1232.7181,-1233.4551,-1236.121,
-8,472.0,6.924328,6.96873,-1233.6571,-1232.7432,-1233.4807,-1236.1514,
-7,473.0,6.926414,6.952936,-1233.683,-1232.7539,-1233.4983,-1236.163,
-6,474.0,6.913004,6.902574,-1233.7241,-1232.7965,-1233.5305,-1236.2006,
-5,486.0,6.878436,6.902872,-1233.77,-1232.8344,-1233.5668,-1236.231,
-4,487.0,6.859066,6.8617477,-1233.8126,-1232.8569,-1233.599,-1236.2599,
-3,488.0,6.849828,6.828372,-1233.8302,-1232.8698,-1233.6124,-1236.2723,
-2,490.0,6.84655,6.809598,-1233.8413,-1232.8693,-1233.6147,-1236.2816,
-1,494.0,6.810194,6.795592,-1233.8484,-1232.8997,-1233.6422,-1236.3046,
0,494.0,6.797976,6.771752,-1233.8333,-1232.9315,-1233.6738,-1236.3447,
1,511.0,6.797976,6.739866,-1233.8517,-1232.95,-1233.6881,-1236.3588,
2,512.0,6.80334,6.723774,-1233.9226,-1232.9762,-1233.7268,-1236.4023,
3,513.0,6.75268,6.68414,-1233.9875,-1233.0197,-1233.7609,-1236.4431,
4,513.0,6.726754,6.640036,-1234.0123,-1233.0548,-1233.7849,-1236.4634,
5,543.0,6.733608,6.616792,-1233.995,-1233.0099,-1233.754,-1236.4216,
6,544.0,6.710066,6.589376,-1234.0607,-1233.051,-1233.7924,-1236.4818,
7,545.0,6.700232,6.610236,-1234.0526,-1233.0775,-1233.8055,-1236.5063,
-8,547.0,6.68861,6.579542,-1234.0814,-1233.0798,-1233.8196,-1236.5048,
-7,548.0,6.685034,6.56047,-1234.1172,-1233.105,-1233.8514,-1236.5281,
-6,549.0,6.664472,6.52918,-1234.0946,-1233.1359,-1233.8794,-1236.5629,
-5,550.0,6.65136,6.484182,-1234.1306,-1233.1658,-1233.8982,-1236.5829,
-4,551.0,6.631692,6.508022,-1234.0967,-1233.1359,-1233.8732,-1236.5593,
-3,552.0,6.654042,6.494016,-1234.1023,-1233.1321,-1233.8842,-1236.5496,
-2,555.0,6.60964,6.438886,-1234.1709,-1233.1764,-1233.9366,-1236.6013,
-1,560.0,6.583714,6.434416,-1234.1783,-1233.1824,-1233.9238,-1236.6097,
0,561.0,6.595038,6.460342,-1234.1885,-1233.178,-1233.905,-1236.596,
1,562.0,6.606362,6.42339,-1234.1503,-1233.1567,-1233.8949,-1236.5808,
2,563.0,6.586992,6.376306,-1234.1476,-1233.1768,-1233.9199,-1236.6061,
3,564.0,6.564642,6.394186,-1234.1721,-1233.189,-1233.9375,-1236.612,
4,567.0,6.557788,6.356936,-1234.1438,-1233.1678,-1233.9104,-1236.5906,
5,568.0,6.548848,6.34889,-1234.2212,-1233.2164,-1233.9742,-1236.6425,
6,592.0,6.541398,6.344122,-1234.2104,-1233.2458,-1233.9867,-1236.6532,
7,594.0,6.534842,6.33697,-1234.2042,-1233.2355,-1233.9888,-1236.6571,
-8,598.0,6.53961,6.343228,-1234.1935,-1233.2441,-1233.9933,-1236.6619,
-7,600.0,6.538716,6.330712,-1234.1777,-1233.2235,-1233.97,-1236.6523,
-6,612.0,6.502658,6.27588,-1234.237,-1233.2653,-1234.0206,-1236.6919,
-5,613.0,6.5008698,6.269622,-1234.2406,-1233.2578,-1233.995,-1236.6881,
-4,614.0,6.498784,6.29376,-1234.2179,-1233.2551,-1234.0057,-1236.686,
-3,636.0,6.499976,6.286012,-1234.2716,-1233.2719,-1234.009,-1236.6937,
-2,637.0,6.483288,6.254424,-1234.237,-1233.2614,-1234.0115,-1236.691,
-1,638.0,6.481202,6.252338,-1234.2445,-1233.2682,-1234.0082,-1236.6871,
0,639.0,6.470474,6.224028,-1234.2296,-1233.2653,-1234.0171,-1236.6776,
1,639.0,6.474944,6.224028,-1234.2263,-1233.2793,-1234.0204,-1236.7009,
2,640.0,6.471368,6.2255177,-1234.2388,-1233.284,-1234.0239,-1236.7202,
3,646.0,6.473156,6.215684,-1234.2352,-1233.2733,-1234.0264,-1236.717,
4,651.0,6.46362,6.197208,-1234.2404,-1233.295,-1234.038,-1236.7161,
5,652.0,6.462726,6.17903,-1234.2406,-1233.2736,-1234.0303,-1236.7101,
6,652.0,6.440674,6.168004,-1234.243,-1233.281,-1234.018,-1236.7024,
7,653.0,6.430244,6.162938,-1234.21,-1233.2548,-1234.0046,-1236.6782,
-8,653.0,6.435906,6.1581697,-1234.2021,-1233.2574,-1234.0084,-1236.684,
-7,662.0,6.444548,6.138204,-1234.2185,-1233.2719,-1234.009,-1236.7104,
-6,662.0,6.420708,6.120622,-1234.2311,-1233.3013,-1234.0303,-1236.7241,
-5,663.0,6.4219,6.126284,-1234.2266,-1233.2905,-1234.0323,-1236.7208,
-4,664.0,6.425178,6.125986,-1234.2421,-1233.2855,-1234.0204,-1236.7155,
-3,664.0,6.428158,6.120026,-1234.2325,-1233.2694,-1234.0067,-1236.6935,
-2,665.0,6.42488,6.105722,-1234.2311,-1233.2727,-1234.0049,-1236.6979,
-1,665.0,6.394484,6.077114,-1234.2311,-1233.2828,-1234.0159,-1236.7175,
0,666.0,6.403424,6.069664,-1234.2433,-1233.2462,-1233.9861,-1236.6875,
1,666.0,6.40253,6.06579,-1234.2358,-1233.2477,-1233.9834,-1236.6824,
2,683.0,6.402232,6.058638,-1234.1827,-1233.2477,-1233.9867,-1236.6833,
3,683.0,6.40402,6.058936,-1234.2042,-1233.2596,-1234.0061,-1236.6982,
4,695.0,6.389716,6.0541677,-1234.18,-1233.2566,-1233.9966,-1236.684,
5,696.0,6.388822,6.045526,-1234.1823,-1233.2458,-1233.996,-1236.6755,
6,697.0,6.388226,6.033308,-1234.1935,-1233.2441,-1233.9673,-1236.6571,
7,697.0,6.387034,6.04344,-1234.1672,-1233.2208,-1233.9557,-1236.6461,
-8,698.0,6.382564,6.046122,-1234.1736,-1233.2158,-1233.9557,-1236.6375,
-7,698.0,6.368856,6.021686,-1234.2013,-1233.2181,-1233.9652,-1236.6547,
-6,712.0,6.377498,6.014236,-1234.1897,-1233.2336,-1233.9706,-1236.652,
-5,713.0,6.364386,6.020792,-1234.1622,-1233.2441,-1233.9807,-1236.6567,
-4,713.0,6.36528,6.021686,-1234.1786,-1233.2266,-1233.9604,-1236.6544,
-3,714.0,6.370048,6.041056,-1234.1846,-1233.2253,-1233.9739,-1236.6493,
-2,715.0,6.367962,6.028838,-1234.1858,-1233.2235,-1233.9668,-1236.6565,
-1,715.0,6.368558,6.02407,-1234.1476,-1233.208,-1233.9489,-1236.6478,
0,716.0,6.373624,6.049102,-1234.0884,-1233.2053,-1233.9474,-1236.6327,
1,716.0,6.382564,6.057148,-1234.1178,-1233.2006,-1233.9352,-1236.6166,
2,717.0,6.38316,6.0643,-1234.1134,-1233.1993,-1233.9226,-1236.6038,
3,717.0,6.379882,6.075624,-1234.0967,-1233.16,-1233.9128,-1236.58,
4,718.0,6.373922,6.077412,-1234.0907,-1233.1594,-1233.9172,-1236.5829,
5,733.0,6.377796,6.089034,-1234.0839,-1233.1476,-1233.9161,-1236.5686,
6,734.0,6.382564,6.098868,-1234.0409,-1233.1061,-1233.868,-1236.5221,
7,734.0,6.384054,6.116748,-1234.0115,-1233.1133,-1233.8505,-1236.5242,
-8,750.0,6.3921,6.14774,-1234.0156,-1233.11,-1233.85,-1236.5194,
-7,763.0,6.396272,6.163534,-1234.0225,-1233.065,-1233.8165,-1236.5021,
-6,764.0,6.394484,6.171878,-1234.0073,-1233.0608,-1233.8151,-1236.4998,
-5,764.0,6.400444,6.194526,-1234.0067,-1233.0283,-1233.7704,-1236.4628,
-4,765.0,6.40253,6.220154,-1233.9828,-1233.0415,-1233.7913,-1236.4723,
-3,765.0,6.400146,6.22522,-1233.9689,-1233.0283,-1233.77,-1236.469,
-2,766.0,6.402232,6.24757,-1233.9304,-1233.0173,-1233.754,-1236.4506,
-1,784.0,6.39806,6.25353,-1233.9551,-1233.0271,-1233.7487,-1236.4535,
0,784.0,6.40551,6.27141,-1233.9447,-1232.9913,-1233.734,-1236.4274,
1,785.0,6.409682,6.297336,-1233.925,-1233.0042,-1233.7507,-1236.4309,
2,785.0,6.4153438,6.319984,-1233.9119,-1232.9843,-1233.7158,-1236.3954,
3,786.0,6.43531,6.349486,-1233.8318,-1232.9574,-1233.6968,-1236.3629,
4,786.0,6.442462,6.370346,-1233.8639,-1232.9613,-1233.7117,-1236.3761,
5,787.0,6.440376,6.3724318,-1233.8756,-1232.9434,-1233.69,-1236.3734,
6,797.0,6.45021,6.393888,-1233.8279,-1232.9247,-1233.6586,-1236.3451,
7,822.0,6.450806,6.415046,-1233.8398,-1232.9202,-1233.6631,-1236.3362,
-8,824.0,6.459448,6.428456,-1233.8073,-1232.897,-1233.6217,-1236.324,
-7,832.0,6.475242,6.440376,-1233.8052,-1232.8918,-1233.6166,-1236.3156,
-6,835.0,6.469282,6.450508,-1233.8356,-1232.877,-1233.6205,-1236.2914,
-5,837.0,6.473752,6.467196,-1233.8073,-1232.8846,-1233.6232,-1236.3112,
-4,838.0,6.484778,6.4823937,-1233.821,-1232.8978,-1233.6234,-1236.3218,
-3,849.0,6.49491,6.49938,-1233.8145,-1232.8749,-1233.6157,-1236.2852,
-2,852.0,6.511002,6.52769,-1233.7849,-1232.8873,-1233.6184,-1236.2795,
-1,854.0,6.52173,6.534246,-1233.7566,-1232.8552,-1233.5833,-1236.2673,
0,859.0,6.5253057,6.555404,-1233.7491,-1232.8447,-1233.5972,-1236.2643,
1,861.0,6.534842,6.578648,-1233.7582,-1232.8123,-1233.5641,-1236.2264,
2,863.0,6.541994,6.586992,-1233.715,-1232.7998,-1233.531,-1236.2047,
3,872.0,6.55749,6.609342,-1233.7474,-1232.8066,-1233.5573,-1236.2357,
4,874.0,6.566728,6.623646,-1233.6989,-1232.7643,-1233.5114,-1236.1913,
5,875.0,6.58133,6.641228,-1233.6827,-1232.7744,-1233.5039,-1236.189,
6,879.0,6.592952,6.656426,-1233.6931,-1232.7721,-1233.5099,-1236.2018,
7,880.0,6.600998,6.667154,-1233.6147,-1232.7128,-1233.4572,-1236.1359,
-8,881.0,6.600104,6.67073,-1233.647,-1232.7426,-1233.478,-1236.1565,
-7,882.0,6.60666,6.679968,-1233.6523,-1232.7336,-1233.4965,-1236.1656,
-6,884.0,6.613812,6.695166,-1233.6395,-1232.7366,-1233.4828,-1236.1675,
-5,887.0,6.620368,6.702318,-1233.6222,-1232.7173,-1233.4607,-1236.1576,
-4,888.0,6.623646,6.707682,-1233.6133,-1232.7029,-1233.4371,-1236.1147,
-3,889.0,6.617686,6.706192,-1233.622,-1232.7136,-1233.4526,-1236.1464,
-2,890.0,6.619176,6.71096,-1233.5874,-1232.6975,-1233.4333,-1236.1249,
-1,909.0,6.62454,6.717516,-1233.6139,-1232.7053,-1233.4402,-1236.1177,
0,912.0,6.6293077,6.7210917,-1233.5785,-1232.6931,-1233.4476,-1236.1058,
1,914.0,6.6355658,6.723178,-1233.6089,-1232.683,-1233.434,-1236.1005,
2,917.0,6.633778,6.732714,-1233.6381,-1232.7045,-1233.4491,-1236.1272,
3,919.0,6.6355658,6.735396,-1233.6068,-1232.691,-1233.4235,-1236.1263,
4,922.0,6.643314,6.739866,-1233.6064,-1232.6877,-1233.4238,-1236.1141,
5,929.0,6.6454,6.749104,-1233.5951,-1232.6996,-1233.4396,-1236.1245,
6,947.0,6.644506,6.75119,-1233.5961,-1232.6815,-1233.4276,-1236.1075,
7,955.0,6.638546,6.750594,-1233.611,-1232.7053,-1233.4497,-1236.1207,
-8,963.0,6.650168,6.75715,-1233.5922,-1232.6877,-1233.4175,-1236.091,
-7,968.0,6.652552,6.764302,-1233.5967,-1232.6859,-1233.4208,-1236.0978,
-6,972.0,6.654042,6.764302,-1233.6196,-1232.683,-1233.4247,-1236.1011,
-5,973.0,6.662088,6.771156,-1233.5918,-1232.6687,-1233.4065,-1236.0984,
-4,975.0,6.66328,6.774136,-1233.5829,-1232.6613,-1233.4152,-1236.0974,
-3,976.0,6.662088,6.777116,-1233.5349,-1232.646,-1233.3901,-1236.0664,
-2,981.0,6.667452,6.78546,-1233.5674,-1232.6547,-1233.3972,-1236.0656,
-1,982.0,6.674604,6.78695,-1233.5349,-1232.6367,-1233.3817,-1236.0656,
0,983.0,6.671028,6.776818,-1233.515,-1232.6555,-1233.3949,-1236.059,
1,985.0,6.669538,6.786354,-1233.5258,-1232.6696,-1233.403,-1236.0781,
2,986.0,6.66924,6.781288,-1233.569,-1232.6617,-1233.3976,-1236.0701,
3,999.0,6.662684,6.776818,-1233.6038,-1232.6791,-1233.4327,-1236.093,
4,1002.0,6.663876,6.780692,-1233.6035,-1232.6687,-1233.4249,-1236.1001,
5,1003.0,6.667154,6.785162,-1233.5537,-1232.6573,-1233.4038,-1236.0844,
6,1004.0,6.669538,6.789632,-1233.5444,-1232.6615,-1233.3966,-1236.0751,
7,1023.0,6.665068,6.78695,-1233.5159,-1232.6415,-1233.3827,-1236.062,
-8,1026.0,6.671624,6.787844,-1233.557,-1232.6671,-1233.4121,-1236.073,
-7,1028.0,6.677882,6.797082,-1233.5647,-1232.6714,-1233.405,-1236.0593,
-6,1029.0,6.680564,6.797976,-1233.5289,-1232.654,-1233.3821,-1236.0474,
-5,1029.0,6.683544,6.804234,-1233.5657,-1232.6501,-1233.3904,-1236.0474,
-4,1044.0,6.684736,6.805426,-1233.5114,-1232.6249,-1233.3672,-1236.0262,
-3,1045.0,6.683544,6.7944,-1233.5355,-1232.6501,-1233.3848,-1236.0432,
-2,1047.0,6.682948,6.799466,-1233.5513,-1232.6356,-1233.361,-1236.0465,
-1,1048.0,6.674306,6.795294,-1233.5647,-1232.6633,-1233.3812,-1236.0461,
0,1049.0,6.67073,6.78993,-1233.6017,-1232.6895,-1233.4098,-1236.0831,
1,1050.0,6.676094,6.801552,-1233.5483,-1232.6475,-1233.3817,-1236.0637,
2,1053.0,6.6781797,6.800062,-1233.5829,-1232.6719,-1233.4083,-1236.0732,
3,1053.0,6.68414,6.805426,-1233.5663,-1232.6729,-1233.3964,-1236.079,
4,1082.0,6.6901,6.808108,-1233.5555,-1232.6671,-1233.3937,-1236.0831,
5,1086.0,6.686822,6.806022,-1233.5775,-1232.6857,-1233.4218,-1236.0897,
6,1091.0,6.685332,6.802744,-1233.5328,-1232.6788,-1233.403,-1236.0775,
7,1092.0,6.688908,6.817048,-1233.5585,-1232.664,-1233.3943,-1236.0682,
-8,1093.0,6.689802,6.814068,-1233.5597,-1232.6472,-1233.3925,-1236.0748,
-7,1094.0,6.691292,6.814962,-1233.5814,-1232.6501,-1233.3951,-1236.0643,
-6,1096.0,6.696954,6.816154,-1233.5552,-1232.6696,-1233.4071,-1236.0784,
-5,1097.0,6.696358,6.811684,-1233.5535,-1232.6392,-1233.3647,-1236.0504,
-4,1100.0,6.690696,6.805426,-1233.5618,-1232.6431,-1233.3773,-1236.0554,
-3,1101.0,6.696358,6.817346,-1233.5618,-1232.6582,-1233.3782,-1236.0453,
-2,1105.0,6.692186,6.808704,-1233.5698,-1232.6624,-1233.3984,-1236.0691,
-1,1128.0,6.695166,6.805426,-1233.5897,-1232.6981,-1233.4191,-1236.0897,
0,1130.0,6.701722,6.81377,-1233.5409,-1232.6576,-1233.3881,-1236.0554,
1,1135.0,6.692782,6.80483,-1233.5686,-1232.6669,-1233.3966,-1236.0682,
2,1138.0,6.684736,6.799466,-1233.5779,-1232.6812,-1233.4104,-1236.0856,
3,1157.0,6.683544,6.796784,-1233.5957,-1232.6597,-1233.4036,-1236.084,
4,1162.0,6.688312,6.806022,-1233.5913,-1232.6624,-1233.4071,-1236.0813,
5,1168.0,6.687418,6.811088,-1233.5754,-1232.6737,-1233.4092,-1236.0879,
6,1172.0,6.683544,6.800062,-1233.6339,-1232.6826,-1233.4178,-1236.0852,
7,1175.0,6.681458,6.799168,-1233.6447,-1232.6892,-1233.4181,-1236.0897,
-8,1179.0,6.68414,6.803936,-1233.6298,-1232.6785,-1233.4199,-1236.091,
-7,1191.0,6.686226,6.80632,-1233.6565,-1232.6874,-1233.4307,-1236.0935,
-6,1192.0,6.691888,6.806618,-1233.6058,-1232.6779,-1233.4113,-1236.0736,
-5,1193.0,6.683842,6.801552,-1233.6029,-1232.6892,-1233.4286,-1236.0867,
-4,1194.0,6.68265,6.795592,-1233.5963,-1232.6809,-1233.4232,-1236.0992,
-3,1195.0,6.686226,6.80483,-1233.5585,-1232.6609,-1233.41,-1236.0798,
-2,1196.0,6.688014,6.807214,-1233.607,-1232.6621,-1233.4175,-1236.084,
-1,1198.0,6.684736,6.802446,-1233.6008,-1232.652,-1233.3848,-1236.085,
0,1199.0,6.677286,6.80036,-1233.5844,-1232.6776,-1233.4235,-1236.1036,
1,1201.0,6.681458,6.80483,-1233.5737,-1232.6874,-1233.4288,-1236.1031,
2,1202.0,6.68563,6.805128,-1233.5698,-1232.6743,-1233.3925,-1236.0829,
3,1203.0,6.682054,6.80632,-1233.5636,-1232.6863,-1233.4127,-1236.0906,
4,1206.0,6.689206,6.811982,-1233.5614,-1232.6586,-1233.3961,-1236.068,
5,1207.0,6.69457,6.811684,-1233.5847,-1232.6484,-1233.3916,-1236.0575,
6,1209.0,6.68116,6.805128,-1233.5707,-1232.6576,-1233.3823,-1236.065,
7,1229.0,6.676988,6.80483,-1233.5707,-1232.6371,-1233.3743,-1236.0614,
-8,1230.0,6.674902,6.811088,-1233.6368,-1232.6698,-1233.4178,-1236.0897,
-7,1231.0,6.668644,6.814664,-1233.5833,-1232.6761,-1233.4178,-1236.0885,
-6,1232.0,6.657916,6.811684,-1233.6187,-1232.6832,-1233.4191,-1236.0873,
-5,1247.0,6.656128,6.824498,-1233.5868,-1232.6708,-1233.3984,-1236.0796,
-4,1248.0,6.645698,6.8242,-1233.6163,-1232.6788,-1233.399,-1236.0891,
-3,1249.0,6.642122,6.822412,-1233.6222,-1232.6886,-1233.4208,-1236.0891,
-2,1250.0,6.636758,6.82271,-1233.6046,-1232.6644,-1233.4036,-1236.0945,
-1,1256.0,6.63795,6.825392,-1233.6238,-1232.6782,-1233.4164,-1236.0978,
0,1257.0,6.63646,6.828372,-1233.6062,-1232.6597,-1233.3871,-1236.0623,
1,1279.0,6.628712,6.826584,-1233.582,-1232.6526,-1233.3848,-1236.0629,
2,1282.0,6.627818,6.823902,-1233.5719,-1232.6683,-1233.386,-1236.081,
3,1283.0,6.622454,6.826286,-1233.6116,-1232.6779,-1233.394,-1236.0757,
4,1284.0,6.637056,6.838206,-1233.6038,-1232.7,-1233.4164,-1236.1138,
5,1285.0,6.634672,6.835822,-1233.6052,-1232.6985,-1233.4125,-1236.0984,
6,1286.0,6.635268,6.8373117,-1233.6234,-1232.6931,-1233.4199,-1236.1001,
7,1287.0,6.635268,6.83165,-1233.6342,-1232.6917,-1233.416,-1236.1007,
-8,1287.0,6.6305,6.829564,-1233.6184,-1232.6716,-1233.3881,-1236.0903,
-7,1288.0,6.637056,6.834034,-1233.6097,-1232.6779,-1233.405,-1236.073,
-6,1289.0,6.645698,6.842974,-1233.5624,-1232.6448,-1233.3839,-1236.0391,
-5,1290.0,6.64987,6.845358,-1233.5529,-1232.6385,-1233.3716,-1236.0376,
-4,1291.0,6.647188,6.844464,-1233.568,-1232.6681,-1233.3931,-1236.0712,
-3,1291.0,6.643612,6.840888,-1233.5876,-1232.6642,-1233.4062,-1236.0757,
-2,1294.0,6.644208,6.840888,-1233.607,-1232.6838,-1233.4268,-1236.084,
-1,1304.0,6.6477838,6.850722,-1233.5918,-1232.6809,-1233.4282,-1236.0984,
0,1305.0,6.641824,6.8435698,-1233.5806,-1232.6797,-1233.4193,-1236.092,
1,1332.0,6.637652,6.843272,-1233.6079,-1232.671,-1233.4077,-1236.0751,
2,1333.0,6.634076,6.844762,-1233.5984,-1232.6165,-1233.3707,-1236.054,
3,1334.0,6.642122,6.840888,-1233.5519,-1232.6251,-1233.3743,-1236.0546,
4,1335.0,6.638546,6.84059,-1233.5582,-1232.6329,-1233.3588,-1236.0602,
5,1336.0,6.642718,6.841186,-1233.537,-1232.6385,-1233.3604,-1236.0482,
6,1337.0,6.647188,6.8373117,-1233.5677,-1232.6478,-1233.3812,-1236.0399,
7,1338.0,6.650466,6.843272,-1233.5764,-1232.6296,-1233.354,-1236.0146,
-8,1338.0,6.645102,6.8435698,-1233.569,-1232.6418,-1233.3657,-1236.0333,
-7,1345.0,6.642718,6.837014,-1233.5934,-1232.6559,-1233.3945,-1236.0563,
-6,1345.0,6.637652,6.8313518,-1233.5579,-1232.6198,-1233.3695,-1236.0253,
-5,1364.0,6.6415257,6.839398,-1233.5695,-1232.6543,-1233.3901,-1236.0525,
-4,1367.0,6.638546,6.832842,-1233.5597,-1232.6392,-1233.3796,-1236.0527,
-3,1368.0,6.63944,6.829564,-1233.6025,-1232.6779,-1233.4092,-1236.0852,
-2,1372.0,6.643016,6.837014,-1233.5876,-1232.6547,-1233.3842,-1236.0647,
-1,1375.0,6.646294,6.841484,-1233.6023,-1232.6603,-1233.386,-1236.0548,
0,1389.0,6.653148,6.842676,-1233.5967,-1232.6547,-1233.3763,-1236.0587,
1,1390.0,6.655234,6.847444,-1233.5543,-1232.6147,-1233.3356,-1236.0033,
2,1391.0,6.653148,6.845954,-1233.5444,-1232.6212,-1233.3505,-1236.0104,
3,1392.0,6.65136,6.83761,-1233.5293,-1232.6398,-1233.3633,-1236.0372,
4,1393.0,6.649274,6.842378,-1233.5668,-1232.6243,-1233.361,-1236.0438,
5,1394.0,6.641824,6.8391,-1233.591,-1232.6624,-1233.3997,-1236.062,
6,1423.0,6.643612,6.842974,-1233.5543,-1232.6613,-1233.3999,-1236.0819,
7,1429.0,6.637354,6.83314,-1233.5847,-1232.6615,-1233.4053,-1236.0802,
-8,1434.0,6.64093,6.834034,-1233.6226,-1232.6702,-1233.408,-1236.0724,
-7,1439.0,6.64242,6.834332,-1233.5967,-1232.666,-1233.4214,-1236.0781,
-6,1443.0,6.644506,6.835822,-1233.5916,-1232.6892,-1233.4321,-1236.1013,
-5,1444.0,6.64689,6.841484,-1233.5516,-1232.6627,-1233.391,-1236.0728,
-4,1445.0,6.651062,6.845656,-1233.5665,-1232.6768,-1233.4077,-1236.092,
-3,1446.0,6.639738,6.842676,-1233.594,-1232.6853,-1233.4218,-1236.1067,
-2,1446.0,6.632884,6.82867,-1233.6044,-1232.6985,-1233.4297,-1236.11,
-1,1449.0,6.637056,6.823008,-1233.6038,-1232.697,-1233.4425,-1236.1063,
0,1450.0,6.642718,6.832842,-1233.6017,-1232.6708,-1233.4169,-1236.0903,
1,1451.0,6.646294,6.835822,-1233.6118,-1232.6979,-1233.4503,-1236.1144,
2,1451.0,6.647486,6.83016,-1233.582,-1232.6948,-1233.4208,-1236.1063,
3,1457.0,6.644506,6.835524,-1233.5328,-1232.665,-1233.4017,-1236.0879,
4,1458.0,6.646592,6.8391,-1233.5477,-1232.6741,-1233.4113,-1236.0978,
5,1459.0,6.645102,6.832246,-1233.5796,-1232.6755,-1233.4047,-1236.081,
6,1460.0,6.64093,6.819432,-1233.6029,-1232.6799,-1233.4178,-1236.0941,
7,1461.0,6.640632,6.825988,-1233.588,-1232.6877,-1233.4294,-1236.1201,
-8,1484.0,6.64093,6.833438,-1233.5901,-1232.6714,-1233.4125,-1236.1042,
-7,1485.0,6.648082,6.832842,-1233.6178,-1232.7053,-1233.43,-1236.1079,
-6,1486.0,6.644804,6.839994,-1233.5862,-1232.7047,-1233.422,-1236.112,
-5,1487.0,6.645102,6.8435698,-1233.6497,-1232.6996,-1233.4327,-1236.1115,
-4,1487.0,6.650466,6.840888,-1233.6261,-1232.6663,-1233.4229,-1236.0867,
-3,1490.0,6.65136,6.836418,-1233.605,-1232.6677,-1233.4202,-1236.0986,
-2,1501.0,6.650168,6.830756,-1233.6019,-1232.6901,-1233.4384,-1236.1138,
-1,1502.0,6.645698,6.825988,-1233.5934,-1232.6714,-1233.4133,-1236.1042,
0,1507.0,6.65136,6.828968,-1233.5645,-1232.6555,-1233.3976,-1236.0798,
1,1508.0,6.65285,6.839994,-1233.6116,-1232.682,-1233.4169,-1236.0957,
2,1537.0,6.648678,6.829564,-1233.5713,-1232.6675,-1233.4089,-1236.096,
3,1538.0,6.646592,6.82867,-1233.6279,-1232.6919,-1233.4387,-1236.1123,
4,1539.0,6.651062,6.834332,-1233.607,-1232.677,-1233.4202,-1236.093,
5,1540.0,6.650466,6.829266,-1233.6174,-1232.6788,-1233.4187,-1236.1058,
6,1541.0,6.648082,6.832246,-1233.6366,-1232.6791,-1233.4191,-1236.0989,
7,1543.0,6.648678,6.8313518,-1233.5972,-1232.657,-1233.4086,-1236.1094,
-8,1547.0,6.651658,6.830756,-1233.6201,-1232.6606,-1233.4065,-1236.1046,
-7,1548.0,6.64689,6.82569,-1233.5752,-1232.6606,-1233.4023,-1236.1034,
-6,1558.0,6.648678,6.833438,-1233.543,-1232.6559,-1233.4042,-1236.0933,
-5,1559.0,6.654936,6.837908,-1233.6104,-1232.6743,-1233.4065,-1236.0879,
-4,1560.0,6.656724,6.83463,-1233.6383,-1232.6844,-1233.4092,-1236.0953,
-3,1561.0,6.656426,6.837014,-1233.6118,-1232.6702,-1233.4059,-1236.091,
-2,1562.0,6.653446,6.829564,-1233.5876,-1232.6609,-1233.4071,-1236.0819,
-1,1562.0,6.644804,6.820624,-1233.616,-1232.6892,-1233.427,-1236.1237,
0,1563.0,6.648082,6.829266,-1233.6187,-1232.6824,-1233.4089,-1236.0918,
1,1564.0,6.64987,6.82867,-1233.5984,-1232.666,-1233.4121,-1236.1034,
2,1565.0,6.647486,6.828372,-1233.6035,-1232.7,-1233.4297,-1236.1191,
3,1586.0,6.649274,6.831948,-1233.5769,-1232.6842,-1233.4232,-1236.1069,
4,1587.0,6.651658,6.835226,-1233.5922,-1232.6844,-1233.4211,-1236.1102,
5,1588.0,6.659406,6.844464,-1233.5558,-1232.6946,-1233.4357,-1236.1063,
6,1589.0,6.661492,6.844464,-1233.549,-1232.6501,-1233.379,-1236.0647,
7,1590.0,6.660896,6.84804,-1233.5812,-1232.6582,-1233.3931,-1236.0778,
-8,1591.0,6.659704,6.849828,-1233.5876,-1232.6606,-1233.3763,-1236.0769,
-7,1592.0,6.656724,6.844166,-1233.5874,-1232.6499,-1233.391,-1236.0769,
-6,1595.0,6.66328,6.848636,-1233.5728,-1232.6398,-1233.3817,-1236.0685,
-5,1598.0,6.661194,6.849232,-1233.5841,-1232.6359,-1233.3604,-1236.0428,
-4,1609.0,6.658512,6.8495297,-1233.6211,-1232.6633,-1233.3972,-1236.0784,
-3,1610.0,6.662982,6.852808,-1233.5742,-1232.6311,-1233.3693,-1236.0498,
-2,1611.0,6.66328,6.851318,-1233.5754,-1232.6371,-1233.3815,-1236.059,
-1,1612.0,6.667452,6.857874,-1233.5841,-1232.6696,-1233.4005,-1236.0829,
0,1613.0,6.666856,6.852212,-1233.6008,-1232.6522,-1233.3856,-1236.065,
1,1637.0,6.662088,6.845954,-1233.5955,-1232.6799,-1233.4178,-1236.1094,
2,1639.0,6.66179,6.85102,-1233.5868,-1232.658,-1233.385,-1236.0712,
3,1640.0,6.65732,6.839994,-1233.5984,-1232.6785,-1233.4047,-1236.0867,
4,1642.0,6.65285,6.83761,-1233.5826,-1232.6824,-1233.4319,-1236.0771,
5,1646.0,6.64987,6.838504,-1233.607,-1232.6832,-1233.4191,-1236.0775,
6,1659.0,6.659108,6.851318,-1233.5942,-1232.6975,-1233.4539,-1236.1067,
7,1660.0,6.655532,6.849828,-1233.5728,-1232.6708,-1233.4229,-1236.087,
-8,1661.0,6.657916,6.85102,-1233.5972,-1232.6865,-1233.4377,-1236.0951,
-7,1662.0,6.662386,6.85102,-1233.6151,-1232.6857,-1233.4226,-1236.1036,
-6,1686.0,6.660598,6.845954,-1233.6019,-1232.6594,-1233.4044,-1236.085,
-5,1689.0,6.659406,6.849828,-1233.619,-1232.705,-1233.4402,-1236.115,
-4,1694.0,6.660598,6.85251,-1233.6276,-1232.7032,-1233.4468,-1236.1117,
-3,1699.0,6.65285,6.845954,-1233.6431,-1232.7109,-1233.4423,-1236.1276,
-2,1700.0,6.651956,6.847742,-1233.6476,-1232.7295,-1233.4598,-1236.1603,
-1,1704.0,6.653148,6.852212,-1233.6017,-1232.7161,-1233.4441,-1236.1251,
0,1705.0,6.656128,6.848636,-1233.6414,-1232.7262,-1233.4646,-1236.1508,
1,1706.0,6.66328,6.85698,-1233.6401,-1232.7086,-1233.4348,-1236.1191,
2,1707.0,6.66626,6.856086,-1233.6005,-1232.6917,-1233.4238,-1236.1022,
3,1708.0,6.662684,6.85251,-1233.5889,-1232.6809,-1233.4232,-1236.0992,
4,1709.0,6.660598,6.852808,-1233.5603,-1232.666,-1233.4023,-1236.0972,
5,1710.0,6.663876,6.861152,-1233.5994,-1232.6698,-1233.4056,-1236.0914,
6,1722.0,6.66179,6.86145,-1233.612,-1232.6594,-1233.3999,-1236.0808,
7,1724.0,6.66328,6.856086,-1233.6174,-1232.6805,-1233.4133,-1236.0933,
-8,1725.0,6.670134,6.865324,-1233.5955,-1232.6772,-1233.4059,-1236.1112,
-7,1725.0,6.668346,6.8557878,-1233.6014,-1232.6793,-1233.4009,-1236.0966,
-6,1728.0,6.668048,6.860854,-1233.6329,-1232.696,-1233.4292,-1236.1115,
-5,1730.0,6.66626,6.8557878,-1233.5876,-1232.6812,-1233.4053,-1236.093,
-4,1744.0,6.671326,6.863536,-1233.6157,-1232.6749,-1233.4086,-1236.0887,
-3,1745.0,6.662684,6.859066,-1233.6345,-1232.6782,-1233.4211,-1236.1049,
-2,1746.0,6.666856,6.86145,-1233.6151,-1232.6671,-1233.4023,-1236.0802,
-1,1771.0,6.666856,6.862344,-1233.613,-1232.7148,-1233.445,-1236.1234,
0,1775.0,6.66626,6.86145,-1233.5839,-1232.6973,-1233.4402,-1236.1218,
1,1776.0,6.677882,6.87039,-1233.5543,-1232.6975,-1233.4255,-1236.1204,
2,1777.0,6.66626,6.8557878,-1233.5814,-1232.6952,-1233.4208,-1236.11,
3,1780.0,6.662982,6.858172,-1233.5591,-1232.6687,-1233.405,-1236.0745,
4,1783.0,6.66477,6.85549,-1233.6014,-1232.6925,-1233.4327,-1236.1028,
5,1784.0,6.661492,6.845656,-1233.6302,-1232.7072,-1233.4387,-1236.1147,
6,1785.0,6.662386,6.8495297,-1233.61,-1232.7202,-1233.447,-1236.1239,
7,1785.0,6.662684,6.8557878,-1233.6154,-1232.7006,-1233.4363,-1236.1123,
-8,1794.0,6.66626,6.857278,-1233.569,-1232.6869,-1233.4327,-1236.092,
-7,1795.0,6.67073,6.869496,-1233.6052,-1232.6901,-1233.4222,-1236.0903,
-6,1796.0,6.662386,6.850722,-1233.5582,-1232.6768,-1233.4059,-1236.0775,
-5,1797.0,6.66179,6.842676,-1233.5922,-1232.6931,-1233.435,-1236.1085,
-4,1798.0,6.664472,6.850722,-1233.591,-1232.7053,-1233.4261,-1236.1011,
-3,1799.0,6.662088,6.848636,-1233.61,-1232.7068,-1233.4324,-1236.1069,
-2,1799.0,6.66328,6.846252,-1233.6255,-1232.7214,-1233.4572,-1236.118,
-1,1822.0,6.658214,6.841782,-1233.6097,-1232.7008,-1233.4354,-1236.1031,
0,1824.0,6.65583,6.84059,-1233.6104,-1232.7107,-1233.4625,-1236.1222,
1,1825.0,6.657618,6.8435698,-1233.6592,-1232.7231,-1233.4557,-1236.1239,
2,1826.0,6.660896,6.847146,-1233.5978,-1232.6993,-1233.4315,-1236.116,
3,1826.0,6.652254,6.839696,-1233.6292,-1232.719,-1233.4536,-1236.129,
4,1827.0,6.656724,6.840888,-1233.6422,-1232.7083,-1233.4489,-1236.1195,
5,1830.0,6.65583,6.844762,-1233.6759,-1232.7173,-1233.4601,-1236.1406,
6,1832.0,6.65583,6.842676,-1233.6565,-1232.7327,-1233.4816,-1236.1392,
7,1844.0,6.651062,6.831948,-1233.6473,-1232.7148,-1233.4697,-1236.1263,
-8,1845.0,6.657916,6.837014,-1233.6124,-1232.7142,-1233.4592,-1236.1293,
-7,1875.0,6.652552,6.83761,-1233.6387,-1232.7089,-1233.459,-1236.1191,
-6,1877.0,6.662386,6.848636,-1233.591,-1232.7142,-1233.4631,-1236.1228,
-5,1878.0,6.650764,6.835524,-1233.6399,-1232.7354,-1233.464,-1236.1323,
-4,1878.0,6.652254,6.836418,-1233.6544,-1232.725,-1233.4702,-1236.141,
-3,1882.0,6.654638,6.84059,-1233.6718,-1232.7574,-1233.4965,-1236.1755,
-2,1891.0,6.656128,6.84208,-1233.6407,-1232.7167,-1233.4563,-1236.1288,
-1,1892.0,6.655234,6.845358,-1233.605,-1232.7029,-1233.4536,-1236.1138,
0,1895.0,6.648082,6.841484,-1233.6509,-1232.7324,-1233.4667,-1236.1207,
1,1896.0,6.65583,6.844464,-1233.61,-1232.7155,-1233.4532,-1236.1272,
2,1897.0,6.662684,6.847146,-1233.6226,-1232.7223,-1233.4619,-1236.1284,
3,1897.0,6.665664,6.847742,-1233.6207,-1232.7103,-1233.439,-1236.1162,
4,1898.0,6.6603,6.85251,-1233.6255,-1232.7045,-1233.4452,-1236.1127,
5,1923.0,6.664472,6.85251,-1233.6467,-1232.7056,-1233.4387,-1236.1106,
6,1924.0,6.659108,6.85102,-1233.6095,-1232.7175,-1233.4518,-1236.1165,
7,1925.0,6.657618,6.8495297,-1233.6523,-1232.7264,-1233.4673,-1236.1356,
-8,1926.0,6.655234,6.847444,-1233.6178,-1232.714,-1233.4342,-1236.116,
-7,1928.0,6.654042,6.851318,-1233.6482,-1232.7122,-1233.4545,-1236.1299,
-6,1929.0,6.657618,6.85102,-1233.6008,-1232.7178,-1233.4553,-1236.1276,
-5,1930.0,6.65434,6.8495297,-1233.5841,-1232.719,-1233.4503,-1236.1198,
-4,1931.0,6.657916,6.853106,-1233.653,-1232.7229,-1233.465,-1236.1228,
-3,1932.0,6.662088,6.856384,-1233.6104,-1232.7047,-1233.4375,-1236.1085,
-2,1933.0,6.660598,6.853106,-1233.6755,-1232.725,-1233.4596,-1236.1213,
-1,1936.0,6.665068,6.8557878,-1233.6538,-1232.7173,-1233.4652,-1236.1305,
0,1937.0,6.662982,6.857278,-1233.6106,-1232.7068,-1233.4423,-1236.1082,
1,1942.0,6.654638,6.850722,-1233.6553,-1232.7035,-1233.4548,-1236.1028,
2,1943.0,6.656128,6.84804,-1233.5823,-1232.7008,-1233.4515,-1236.1106,
3,1945.0,6.658512,6.85698,-1233.612,-1232.7142,-1233.441,-1236.1165,
4,1946.0,6.663876,6.860258,-1233.6097,-1232.7008,-1233.441,-1236.1138,
5,1976.0,6.667452,6.856682,-1233.5715,-1232.6772,-1233.4226,-1236.0903,
6,1978.0,6.661194,6.854596,-1233.6238,-1232.7169,-1233.4468,-1236.1222,
7,1979.0,6.65732,6.85698,-1233.6335,-1232.7103,-1233.4377,-1236.1189,
-8,1981.0,6.651062,6.849828,-1233.6354,-1232.7351,-1233.4724,-1236.1528,
-7,1997.0,6.65136,6.846848,-1233.6589,-1232.725,-1233.4753,-1236.1526,
-6,1998.0,6.65285,6.851914,-1233.6455,-1232.7318,-1233.4679,-1236.1464,
-5,1999.0,6.650764,6.852212,-1233.6375,-1232.7188,-1233.467,-1236.1499,
-4,1999.0,6.651956,6.850722,-1233.6017,-1232.7211,-1233.4652,-1236.1427,
-3,2000.0,6.654936,6.856384,-1233.6494,-1232.7235,-1233.4607,-1236.1394,
-2,2024.0,6.654638,6.849232,-1233.6124,-1232.7231,-1233.4625,-1236.1458,
-1,2026.0,6.6600018,6.849828,-1233.6112,-1232.6869,-1233.4348,-1236.1266,
0,2027.0,6.653446,6.851318,-1233.6724,-1232.7229,-1233.4572,-1236.1538,
1,2027.0,6.64838,6.842676,-1233.6143,-1232.7151,-1233.4485,-1236.135,
2,2028.0,6.651956,6.845358,-1233.6703,-1232.7241,-1233.4849,-1236.1466,
3,2031.0,6.651956,6.843272,-1233.661,-1232.7566,-1233.4944,-1236.1613,
4,2049.0,6.655234,6.85102,-1233.6234,-1232.7485,-1233.4772,-1236.1394,
5,2050.0,6.656128,6.847146,-1233.6488,-1232.7458,-1233.4873,-1236.1606,
6,2051.0,6.658512,6.844464,-1233.6312,-1232.7231,-1233.4658,-1236.1278,
7,2052.0,6.654936,6.848934,-1233.6464,-1232.7515,-1233.5076,-1236.149,
-8,2053.0,6.651658,6.848934,-1233.6523,-1232.7277,-1233.4777,-1236.1377,
-7,2077.0,6.651956,6.845358,-1233.5769,-1232.727,-1233.4673,-1236.138,
-6,2079.0,6.649274,6.842378,-1233.6553,-1232.7327,-1233.4708,-1236.1458,
-5,2080.0,6.658512,6.849828,-1233.6228,-1232.6985,-1233.4441,-1236.1106,
-4,2081.0,6.655532,6.8435698,-1233.5988,-1232.7163,-1233.4733,-1236.132,
-3,2082.0,6.64689,6.83165,-1233.6193,-1232.7529,-1233.4941,-1236.1681,
-2,2083.0,6.644804,6.838206,-1233.68,-1232.7498,-1233.5066,-1236.1594,
-1,2085.0,6.647188,6.844464,-1233.6821,-1232.7694,-1233.5225,-1236.1794,
0,2086.0,6.644506,6.835822,-1233.6484,-1232.7488,-1233.4819,-1236.163,
1,2089.0,6.635864,6.8242,-1233.6771,-1232.7614,-1233.4985,-1236.172,
2,2094.0,6.64093,6.827776,-1233.6755,-1232.7509,-1233.4911,-1236.171,
3,2097.0,6.651658,6.836418,-1233.6282,-1232.7103,-1233.4569,-1236.1257,
4,2099.0,6.646294,6.839398,-1233.6342,-1232.7354,-1233.4991,-1236.1528,
5,2102.0,6.644506,6.835822,-1233.6023,-1232.7562,-1233.5072,-1236.1683,
6,2103.0,6.651956,6.842974,-1233.6345,-1232.7556,-1233.4971,-1236.1624,
7,2104.0,6.649572,6.841186,-1233.6265,-1232.7357,-1233.4834,-1236.1549,
-8,2126.0,6.65285,6.844762,-1233.6329,-1232.7188,-1233.465,-1236.1346,
-7,2127.0,6.64689,6.8373117,-1233.6562,-1232.7604,-1233.4995,-1236.1669,
-6,2128.0,6.654042,6.844166,-1233.6246,-1232.7318,-1233.4803,-1236.1416,
-5,2129.0,6.65583,6.843868,-1233.6372,-1232.725,-1233.4685,-1236.1276,
-4,2130.0,6.651062,6.837908,-1233.6941,-1232.739,-1233.4867,-1236.1582,
-3,2132.0,6.652254,6.844464,-1233.6627,-1232.7283,-1233.4873,-1236.1466,
-2,2135.0,6.659108,6.848338,-1233.6559,-1232.739,-1233.4896,-1236.146,
-1,2149.0,6.65583,6.847146,-1233.6327,-1232.725,-1233.4628,-1236.1406,
0,2151.0,6.663876,6.853702,-1233.6532,-1232.7333,-1233.4702,-1236.1464,
1,2151.0,6.661492,6.860854,-1233.6526,-1232.7434,-1233.4857,-1236.1532,
2,2152.0,6.654042,6.84655,-1233.6447,-1232.7339,-1233.4819,-1236.1501,
3,2153.0,6.655532,6.844464,-1233.6917,-1232.7568,-1233.503,-1236.1731,
4,2177.0,6.654936,6.847742,-1233.6741,-1232.7446,-1233.4923,-1236.1666,
5,2178.0,6.653148,6.839696,-1233.661,-1232.758,-1233.5024,-1236.1725,
6,2179.0,6.6600018,6.850126,-1233.6538,-1232.7405,-1233.4807,-1236.1427,
7,2180.0,6.657022,6.847444,-1233.6064,-1232.7238,-1233.4476,-1236.1329,
-8,2181.0,6.65136,6.839398,-1233.6414,-1232.761,-1233.4869,-1236.1561,
-7,2181.0,6.651956,6.838206,-1233.6163,-1232.7264,-1233.4813,-1236.1454,
-6,2182.0,6.654042,6.83761,-1233.6431,-1232.7155,-1233.464,-1236.1332,
-5,2187.0,6.652552,6.83165,-1233.6562,-1232.7583,-1233.4968,-1236.1642,
-4,2187.0,6.650764,6.81675,-1233.6792,-1232.7554,-1233.4917,-1236.1586,
-3,2207.0,6.648082,6.811684,-1233.691,-1232.77,-1233.5076,-1236.1842,
-2,2208.0,6.63944,6.803042,-1233.6536,-1232.7521,-1233.4968,-1236.1671,
-1,2211.0,6.629904,6.797976,-1233.6821,-1232.7723,-1233.5153,-1236.1898,
0,2218.0,6.634076,6.789036,-1233.6782,-1232.767,-1233.514,-1236.1923,
1,2219.0,6.636758,6.772944,-1233.6434,-1232.7562,-1233.4977,-1236.1853,
2,2241.0,6.619772,6.732714,-1233.6906,-1232.7893,-1233.5316,-1236.2167,
3,2245.0,6.601296,6.72288,-1233.6968,-1232.8141,-1233.5487,-1236.2322,
4,2247.0,6.5858,6.701722,-1233.7423,-1232.8385,-1233.5773,-1236.2524,
5,2248.0,6.577158,6.67669,-1233.7719,-1232.86,-1233.6002,-1236.2562,
6,2250.0,6.564344,6.633182,-1233.7737,-1232.8629,-1233.605,-1236.27,
7,2251.0,6.523518,6.596528,-1233.8088,-1232.9226,-1233.6646,-1236.3126,
-8,2254.0,6.5130877,6.565834,-1233.8198,-1232.9243,-1233.6613,-1236.315,
-7,2267.0,6.497592,6.519644,-1233.891,-1232.9636,-1233.7028,-1236.3722,
-6,2268.0,6.48895,6.49789,-1233.8881,-1232.992,-1233.7358,-1236.3984,
-5,2269.0,6.461236,6.465408,-1233.9497,-1233.0116,-1233.7635,-1236.4243,
-4,2270.0,6.45766,6.438588,-1233.9321,-1233.0161,-1233.7667,-1236.428,
-3,2270.0,6.447528,6.432926,-1233.9292,-1233.0186,-1233.7507,-1236.4312,
-2,2298.0,6.437098,6.398358,-1233.9567,-1233.0552,-1233.8047,-1236.4708,
-1,2300.0,6.436204,6.376008,-1233.956,-1233.0471,-1233.7948,-1236.464,
0,2301.0,6.41892,6.354552,-1233.9426,-1233.0605,-1233.796,-1236.4849,
1,2301.0,6.434714,6.350976,-1234.0156,-1233.0787,-1233.8192,-1236.5048,
2,2302.0,6.410576,6.3173018,-1234.0219,-1233.0852,-1233.8297,-1236.5012,
3,2305.0,6.412364,6.333096,-1233.9805,-1233.065,-1233.8138,-1236.4851,
4,2306.0,6.40402,6.303296,-1233.9412,-1233.0674,-1233.8132,-1236.495,
5,2309.0,6.384948,6.26396,-1234.015,-1233.0933,-1233.8291,-1236.508,
6,2317.0,6.371836,6.278264,-1234.0353,-1233.1252,-1233.8773,-1236.5471,
7,2318.0,6.3968678,6.257404,-1234.0082,-1233.1135,-1233.8558,-1236.532,
-8,2319.0,6.37869,6.216876,-1234.0526,-1233.1385,-1233.8693,-1236.5492,
-7,2344.0,6.35634,6.255914,-1234.0773,-1233.1368,-1233.8812,-1236.5385,
-6,2346.0,6.37124,6.25651,-1233.9679,-1233.0885,-1233.8177,-1236.5033,
-5,2347.0,6.382564,6.218962,-1233.9644,-1233.0671,-1233.7888,-1236.4822,
-4,2348.0,6.379286,6.233862,-1233.961,-1233.0471,-1233.7781,-1236.4634,
-3,2349.0,6.361704,6.210022,-1233.9786,-1233.0844,-1233.8243,-1236.4973,
-2,2370.0,6.356042,6.211214,-1234.0189,-1233.1085,-1233.8452,-1236.5289,
-1,2371.0,6.34442,6.204956,-1234.0278,-1233.1141,-1233.8628,-1236.5236,
0,2372.0,6.35783,6.203764,-1234.0483,-1233.1517,-1233.8988,-1236.5763,
1,2395.0,6.365578,6.2132998,-1234.1068,-1233.1652,-1233.903,-1236.5837,
2,2404.0,6.362896,6.196016,-1234.1211,-1233.1991,-1233.9211,-1236.6187,
3,2428.0,6.351274,6.185586,-1234.1337,-1233.2175,-1233.9507,-1236.641,
4,2430.0,6.353658,6.181712,-1234.0952,-1233.2041,-1233.9408,-1236.622,
5,2431.0,6.349188,6.176944,-1234.1166,-1233.2301,-1233.978,-1236.6461,
6,2432.0,6.339652,6.178434,-1234.148,-1233.2415,-1233.9763,-1236.6619,
7,2433.0,6.34889,6.181414,-1234.1188,-1233.2444,-1233.9757,-1236.6592,
-8,2434.0,6.350082,6.173964,-1234.1267,-1233.2465,-1234.0004,-1236.6511,
-7,2436.0,6.358724,6.187076,-1234.1428,-1233.2134,-1233.9664,-1236.6249,
-6,2439.0,6.359618,6.180818,-1234.1672,-1233.2512,-1233.9966,-1236.6681,
-5,2440.0,6.354254,6.168898,-1234.1492,-1233.2498,-1233.9999,-1236.6666,
-4,2441.0,6.356042,6.147442,-1234.1628,-1233.253,-1233.9935,-1236.6648,
-3,2452.0,6.35485,6.142674,-1234.1443,-1233.2548,-1233.9972,-1236.6759,
-2,2453.0,6.343228,6.15519,-1234.1628,-1233.2596,-1234.013,-1236.6788,
-1,2454.0,6.33548,6.157872,-1234.2185,-1233.2742,-1234.0317,-1236.6842,
0,2479.0,6.33846,6.156978,-1234.1506,-1233.2355,-1233.9813,-1236.647,
1,2480.0,6.344718,6.151018,-1234.1488,-1233.2256,-1233.9772,-1236.6544,
2,2481.0,6.343824,6.136714,-1234.1602,-1233.239,-1233.9945,-1236.6658,
3,2482.0,6.339652,6.120622,-1234.1399,-1233.2626,-1234.0034,-1236.6646,
4,2483.0,6.344718,6.146846,-1234.1792,-1233.2858,-1234.0239,-1236.6943,
5,2484.0,6.337864,6.120026,-1234.1748,-1233.2587,-1234.0051,-1236.6813,
6,2486.0,6.338162,6.12837,-1234.1422,-1233.2721,-1234.0132,-1236.6827,
7,2489.0,6.334884,6.121814,-1234.221,-1233.2739,-1234.0096,-1236.695,
-8,2503.0,6.343824,6.12092,-1234.1771,-1233.2452,-1233.9805,-1236.6536,
-7,2504.0,6.34293,6.128072,-1234.1918,-1233.2649,-1234.01,-1236.6776,
-6,2505.0,6.33399,6.119132,-1234.1885,-1233.2521,-1233.9897,-1236.6749,
-5,2506.0,6.331904,6.114066,-1234.1449,-1233.2456,-1233.99,-1236.6615,
-4,2506.0,6.33399,6.114364,-1234.1598,-1233.2715,-1234.0024,-1236.6827,
-3,2540.0,6.333096,6.113172,-1234.1658,-1233.2539,-1233.9875,-1236.677,
-2,2544.0,6.33846,6.122112,-1234.1521,-1233.2783,-1234.0377,-1236.6982,
-1,2547.0,6.343228,6.128072,-1234.1366,-1233.2489,-1234.0013,-1236.6669,
0,2552.0,6.35336,6.138502,-1234.1813,-1233.2349,-1233.9822,-1236.6526,
1,2557.0,6.35187,6.148634,-1234.1945,-1233.2516,-1234.003,-1236.6741,
2,2558.0,6.352466,6.152508,-1234.1682,-1233.2351,-1233.9867,-1236.6642,
3,2559.0,6.3539557,6.15668,-1234.1825,-1233.2452,-1234.0051,-1236.6722,
4,2560.0,6.370346,6.188566,-1229.1611,-1228.4355,-1229.1907,-1231.8569,
5,2563.0,6.39806,6.230584,-1231.7542,-1230.9751,-1231.7258,-1234.395,
6,2564.0,6.41147,6.259788,-1236.9958,-1235.9869,-1236.7343,-1239.4103,
7,2565.0,6.40998,6.271708,-1237.6827,-1236.6255,-1237.3738,-1240.0564,
-8,2566.0,6.405212,6.286906,-1233.6902,-1232.7349,-1233.5037,-1236.166,
-7,2571.0,6.407,6.30419,-1230.794,-1229.9718,-1230.7361,-1233.3958,
-6,2574.0,6.42339,6.341142,-1232.4666,-1231.6436,-1232.4043,-1235.0634,
-5,2596.0,6.4368,6.37124,-1235.8495,-1234.898,-1235.6549,-1238.3044,
-4,2600.0,6.444846,6.389418,-1236.2963,-1235.272,-1236.0269,-1238.6814,
-3,2601.0,6.446038,6.406404,-1233.7784,-1232.8567,-1233.6062,-1236.2723,
-2,2604.0,6.446038,6.41743,-1232.065,-1231.1924,-1231.9341,-1234.5911,
-1,2605.0,6.455276,6.443356,-1233.0653,-1232.1946,-1232.9413,-1235.6028,
0,2632.0,6.471666,6.476136,-1234.951,-1234.0126,-1234.754,-1237.4304,
1,2634.0,6.47256,6.490738,-1235.1355,-1234.1742,-1234.9105,-1237.5907,
2,2635.0,6.464514,6.491036,-1233.8258,-1232.9204,-1233.6589,-1236.3484,
3,2636.0,6.471964,6.504744,-1233.0143,-1232.1677,-1232.9113,-1235.5831,
4,2638.0,6.479116,6.528882,-1233.5024,-1232.621,-1233.3752,-1236.0399,
5,2657.0,6.49342,6.570304,-1230.965,-1230.1168,-1230.8649,-1233.5411,
6,2659.0,6.504744,6.601892,-1229.767,-1228.9985,-1229.7396,-1232.4088,
7,2660.0,6.521134,6.629904,-1234.1027,-1233.2292,-1233.9474,-1236.6199,
-8,2661.0,6.516664,6.631692,-1237.6962,-1236.6722,-1237.3973,-1240.074,
-7,2662.0,6.509512,6.627818,-1235.9252,-1234.9099,-1235.6376,-1238.32,
-6,2663.0,6.502956,6.62156,-1231.6221,-1230.754,-1231.4808,-1234.1536,
-5,2683.0,6.51279,6.637652,-1230.6517,-1229.8964,-1230.6298,-1233.2942,
-4,2684.0,6.532756,6.670134,-1234.0392,-1233.1368,-1233.8684,-1236.5334,
-3,2685.0,6.540206,6.68265,-1236.7429,-1235.7336,-1236.4712,-1239.1421,
-2,2686.0,6.539014,6.680266,-1235.3617,-1234.4,-1235.156,-1237.8005,
-1,2687.0,6.534246,6.6752,-1232.1132,-1231.2615,-1232.0197,-1234.6643,
0,2690.0,6.543186,6.6901,-1231.4012,-1230.619,-1231.3605,-1234.0347,
1,2693.0,6.549444,6.70649,-1233.9006,-1233.026,-1233.771,-1236.4312,
2,2706.0,6.565536,6.717218,-1235.9237,-1234.9171,-1235.6493,-1238.328,
3,2707.0,6.562556,6.721986,-1234.9058,-1233.9486,-1234.6868,-1237.3494,
4,2708.0,6.566132,6.725562,-1232.5519,-1231.7076,-1232.4469,-1235.1075,
5,2709.0,6.571496,6.72586,-1232.0613,-1231.2592,-1232.0035,-1234.6622,
6,2734.0,6.584608,6.747614,-1233.8329,-1232.9402,-1233.6761,-1236.343,
7,2736.0,6.583714,6.754766,-1235.1876,-1234.2275,-1234.9742,-1237.636,
-8,2737.0,6.583416,6.754468,-1234.4664,-1233.5609,-1234.3035,-1236.9778,
-7,2738.0,6.58729,6.75417,-1232.9342,-1232.0619,-1232.8116,-1235.4761,
-6,2739.0,6.584608,6.7497,-1232.6377,-1231.7854,-1232.5188,-1235.1901,
-5,2739.0,6.593548,6.761024,-1233.7811,-1232.8853,-1233.6172,-1236.2864,
-4,2740.0,6.595932,6.768772,-1234.6471,-1233.6807,-1234.4194,-1237.0839,
-3,2741.0,6.589376,6.771752,-1234.2323,-1233.3079,-1234.043,-1236.7101,
-2,2743.0,6.59325,6.773838,-1233.3031,-1232.3999,-1233.1359,-1235.8182,
-1,2747.0,6.600998,6.780692,-1233.0688,-1232.2029,-1232.9506,-1235.6094,
0,2756.0,6.603084,6.777712,-1233.6997,-1232.8358,-1233.5796,-1236.2429,
1,2757.0,6.607256,6.790228,-1234.1753,-1233.2617,-1233.9999,-1236.6807,
2,2758.0,6.612024,6.799764,-1233.9135,-1233.0134,-1233.7462,-1236.4282,
3,2784.0,6.6170897,6.801552,-1233.4604,-1232.5897,-1233.3374,-1235.9985,
4,2785.0,6.619772,6.800062,-1233.4235,-1232.5184,-1233.262,-1235.939,
5,2786.0,6.624242,6.80036,-1233.675,-1232.7589,-1233.4991,-1236.1729,
6,2787.0,6.62007,6.802446,-1233.7626,-1232.8716,-1233.6085,-1236.2861,
7,2788.0,6.613812,6.792016,-1233.7299,-1232.8329,-1233.5624,-1236.244,
-8,2792.0,6.6170897,6.796486,-1233.6687,-1232.7649,-1233.507,-1236.1853,
-7,2793.0,6.618282,6.799168,-1233.6602,-1232.7628,-1233.4985,-1236.1752,
-6,2824.0,6.62007,6.80036,-1233.6395,-1232.7498,-1233.4828,-1236.16,
-5,2826.0,6.624838,6.804234,-1233.5225,-1232.634,-1233.3802,-1236.0435,
-4,2826.0,6.621858,6.80483,-1233.5841,-1232.7086,-1233.4286,-1236.1138,
-3,2827.0,6.62156,6.807214,-1233.7894,-1232.9076,-1233.6401,-1236.3087,
-2,2828.0,6.615898,6.803042,-1233.8868,-1232.9604,-1233.6813,-1236.3588,
-1,2829.0,6.622156,6.8093,-1233.6321,-1232.7518,-1233.4869,-1236.1681,
0,2831.0,6.617686,6.802446,-1233.3901,-1232.5253,-1233.2673,-1235.9291,
1,2834.0,6.62156,6.806022,-1233.5647,-1232.6458,-1233.3767,-1236.0444,
2,2840.0,6.622454,6.80781,-1233.9152,-1232.9857,-1233.7179,-1236.3927,
3,2841.0,6.626924,6.8093,-1233.9584,-1233.0676,-1233.7915,-1236.4783,
4,2842.0,6.623944,6.80781,-1233.6643,-1232.7653,-1233.5037,-1236.1758,
5,2867.0,6.627222,6.811386,-1233.301,-1232.4276,-1233.1761,-1235.8215,
6,2868.0,6.6293077,6.817346,-1233.4652,-1232.5968,-1233.3269,-1235.9886,
7,2869.0,6.630202,6.818538,-1233.9271,-1233.042,-1233.7727,-1236.4458,
-8,2870.0,6.628414,6.817346,-1234.0227,-1233.1356,-1233.8699,-1236.5438,
-7,2871.0,6.6305,6.81675,-1233.6548,-1232.7599,-1233.4917,-1236.1708,
-6,2874.0,6.633182,6.815558,-1233.2634,-1232.3918,-1233.1094,-1235.7845,
-5,2876.0,6.631692,6.818538,-1233.4044,-1232.5739,-1233.2992,-1235.969,
-4,2892.0,6.62901,6.818538,-1233.9515,-1233.0573,-1233.801,-1236.461,
-3,2892.0,6.625136,6.81228,-1234.0576,-1233.1693,-1233.9152,-1236.5734,
-2,2893.0,6.625434,6.817048,-1233.6544,-1232.7527,-1233.4855,-1236.1621,
-1,2894.0,6.6305,6.816452,-1233.2551,-1232.3563,-1233.0986,-1235.7806,
0,2895.0,6.63497,6.821518,-1233.4205,-1232.5352,-1233.2733,-1235.9401,
1,2918.0,6.633182,6.829564,-1233.9116,-1233.0378,-1233.77,-1236.4524,
2,2919.0,6.635268,6.81526,-1234.0564,-1233.1567,-1233.9102,-1236.5698,
3,2920.0,6.630202,6.81973,-1233.6246,-1232.7568,-1233.5018,-1236.1743,
4,2921.0,6.636758,6.824498,-1233.226,-1232.3766,-1233.1199,-1235.7911,
5,2921.0,6.633778,6.817942,-1233.3871,-1232.5265,-1233.2864,-1235.9493,
6,2922.0,6.644208,6.82718,-1233.906,-1232.9998,-1233.7504,-1236.4226,
7,2923.0,6.637354,6.82271,-1234.0084,-1233.1124,-1233.8318,-1236.5006,
-8,2923.0,6.63944,6.82718,-1233.6292,-1232.719,-1233.4557,-1236.1251,
-7,2924.0,6.63497,6.820624,-1233.2274,-1232.3594,-1233.1007,-1235.778,
-6,2926.0,6.641228,6.823902,-1233.45,-1232.5573,-1233.2975,-1235.982,
-5,2929.0,6.640334,6.8191338,-1233.8821,-1232.9816,-1233.7266,-1236.4092,
-4,2930.0,6.643314,6.825392,-1233.9453,-1233.0564,-1233.7954,-1236.4834,
-3,2942.0,6.6415257,6.82867,-1233.6062,-1232.7333,-1233.472,-1236.1582,
-2,2943.0,6.6415257,6.8250937,-1233.2736,-1232.4181,-1233.1478,-1235.8232,
-1,2945.0,6.638546,6.82122,-1233.4169,-1232.5695,-1233.3066,-1235.9797,
0,2946.0,6.651658,6.835226,-1233.8231,-1232.9268,-1233.6562,-1236.3356,
1,2973.0,6.654042,6.829862,-1233.8914,-1232.9875,-1233.7206,-1236.4077,
2,2975.0,6.643016,6.825392,-1233.563,-1232.6764,-1233.4241,-1236.1028,
3,2975.0,6.639738,6.821518,-1233.2712,-1232.3972,-1233.1433,-1235.8298,
4,2976.0,6.646592,6.833438,-1233.391,-1232.514,-1233.2649,-1235.9437,
5,2977.0,6.647486,6.825988,-1233.7104,-1232.8472,-1233.5945,-1236.2733,
6,2978.0,6.650764,6.829862,-1233.8022,-1232.9264,-1233.6777,-1236.349,
7,2979.0,6.651658,6.83314,-1233.5549,-1232.6931,-1233.4423,-1236.098,
-8,2980.0,6.641228,6.825988,-1233.3293,-1232.4666,-1233.2039,-1235.8668,
-7,2981.0,6.644208,6.830458,-1233.4404,-1232.5575,-1233.2963,-1235.9589,
-6,2983.0,6.638844,6.826286,-1233.7051,-1232.8358,-1233.5725,-1236.2413,
-5,2986.0,6.63348,6.82569,-1233.7284,-1232.8809,-1233.6309,-1236.301,
-4,2987.0,6.636162,6.827478,-1233.5492,-1232.6952,-1233.4259,-1236.1094,
-3,2993.0,6.63795,6.829266,-1233.2894,-1232.4576,-1233.1946,-1235.8635,
-2,2994.0,6.63199,6.822412,-1233.3875,-1232.5471,-1233.2894,-1235.955,
-1,2995.0,6.633182,6.8191338,-1233.6273,-1232.7673,-1233.5078,-1236.1737,
0,2996.0,6.6355658,6.815558,-1233.678,-1232.8132,-1233.5531,-1236.2339,
1,3032.0,6.638546,6.828968,-1233.5436,-1232.6788,-1233.4229,-1236.0924,
2,3033.0,6.638546,6.828372,-1233.3815,-1232.5242,-1233.259,-1235.9413,
3,3034.0,6.64391,6.830458,-1233.4539,-1232.5817,-1233.3151,-1236.0042,
4,3035.0,6.658512,6.83612,-1233.6407,-1232.7407,-1233.4799,-1236.1615,
5,3036.0,6.668048,6.83463,-1233.661,-1232.7738,-1233.5134,-1236.1958,
6,3037.0,6.671624,6.83165,-1233.5839,-1232.677,-1233.4181,-1236.1022,
7,3038.0,6.682352,6.823902,-1233.478,-1232.5745,-1233.3201,-1236.005,
-8,3039.0,6.689802,6.823306,-1233.5504,-1232.6177,-1233.3651,-1236.0575,
-7,3041.0,6.699338,6.828074,-1233.6627,-1232.7452,-1233.4884,-1236.1646,
-6,3044.0,6.711854,6.831054,-1233.6178,-1232.7599,-1233.5111,-1236.1821,
-5,3045.0,6.719602,6.8313518,-1233.5504,-1232.6788,-1233.4229,-1236.0984,
-4,3046.0,6.7333097,6.836716,-1233.4702,-1232.5513,-1233.313,-1235.9949,
-3,3047.0,6.736588,6.832544,-1233.4944,-1232.5972,-1233.355,-1236.0405,
-2,3047.0,6.74523,6.843868,-1233.6019,-1232.7072,-1233.4503,-1236.1326,
-1,3048.0,6.741058,6.828968,-1233.6425,-1232.7318,-1233.4718,-1236.1561,
0,3049.0,6.740462,6.82718,-1233.5754,-1232.6642,-1233.3925,-1236.0825,
1,3049.0,6.740164,6.828372,-1233.459,-1232.5858,-1233.337,-1236.0099,
2,3050.0,6.737184,6.822412,-1233.5055,-1232.6309,-1233.3767,-1236.0391,
3,3060.0,6.733012,6.823902,-1233.6017,-1232.6907,-1233.4309,-1236.112,
4,3061.0,6.74076,6.829564,-1233.5994,-1232.6975,-1233.4371,-1236.118,
5,3062.0,6.747316,6.828968,-1233.5442,-1232.6636,-1233.4113,-1236.0819,
6,3062.0,6.747912,6.829564,-1233.5239,-1232.6373,-1233.3835,-1236.0703,
7,3063.0,6.749104,6.835524,-1233.5219,-1232.6719,-1233.3978,-1236.086,
-8,3099.0,6.748806,6.839994,-1233.5883,-1232.7,-1233.4423,-1236.1147,
-7,3101.0,6.751488,6.840888,-1233.5438,-1232.696,-1233.4497,-1236.1117,
-6,3101.0,6.746422,6.836716,-1233.5334,-1232.6793,-1233.4286,-1236.0992,
-5,3102.0,6.740164,6.82569,-1233.5117,-1232.6656,-1233.4294,-1236.092,
-4,3103.0,6.740164,6.815558,-1233.5579,-1232.6865,-1233.4545,-1236.1207,
-3,3104.0,6.738972,6.818538,-1233.5701,-1232.6671,-1233.4425,-1236.1174,
-2,3105.0,6.741356,6.829564,-1233.5529,-1232.6714,-1233.43,-1236.1067,
-1,3109.0,6.749998,6.83612,-1233.5504,-1232.6743,-1233.4178,-1236.1061,
0,3110.0,6.748806,6.832246,-1233.5492,-1232.6644,-1233.4131,-1236.0864,
1,3111.0,6.7517858,6.837014,-1233.5415,-1232.6735,-1233.4089,-1236.0927,
2,3111.0,6.741952,6.828968,-1233.5221,-1232.6681,-1233.4009,-1236.0912,
3,3112.0,6.729734,6.820624,-1233.5254,-1232.6636,-1233.4056,-1236.081,
4,3113.0,6.733608,6.820922,-1233.5868,-1232.6874,-1233.4222,-1236.1067,
5,3114.0,6.733906,6.814664,-1233.5668,-1232.6788,-1233.4244,-1236.1133,
6,3114.0,6.738376,6.83165,-1233.5645,-1232.6987,-1233.4313,-1236.1201,
7,3115.0,6.735992,6.829862,-1233.5391,-1232.697,-1233.4369,-1236.1255,
-8,3116.0,6.73927,6.823306,-1233.5684,-1232.6818,-1233.4255,-1236.1067,
-7,3116.0,6.7395678,6.82718,-1233.6211,-1232.7026,-1233.4601,-1236.1356,
-6,3117.0,6.733608,6.821816,-1233.6017,-1232.7241,-1233.4681,-1236.1472,
-5,3118.0,6.73927,6.830756,-1233.5948,-1232.6917,-1233.4357,-1236.1204,
-4,3119.0,6.726158,6.817048,-1233.569,-1232.6943,-1233.441,-1236.1168,
-3,3119.0,6.73033,6.817942,-1233.588,-1232.6979,-1233.4435,-1236.1338,
-2,3120.0,6.73182,6.82122,-1233.6377,-1232.7432,-1233.4822,-1236.1573,
-1,3121.0,6.734204,6.82122,-1233.6395,-1232.7417,-1233.4822,-1236.157,
0,3121.0,6.7348,6.820326,-1233.6637,-1232.7333,-1233.4917,-1236.1737,
1,3122.0,6.73629,6.817942,-1233.7039,-1232.7417,-1233.4965,-1236.1729,
2,3152.0,6.724072,6.80036,-1233.6625,-1232.7285,-1233.4768,-1236.1505,
3,3154.0,6.724072,6.810492,-1233.6926,-1232.7455,-1233.4956,-1236.1794,
4,3155.0,6.720496,6.80036,-1233.6873,-1232.7477,-1233.49,-1236.1812,
5,3155.0,6.71841,6.792314,-1233.6562,-1232.7551,-1233.5033,-1236.1758,
6,3156.0,6.713642,6.787248,-1233.6765,-1232.7455,-1233.4974,-1236.1671,
7,3157.0,6.722582,6.78993,-1233.6323,-1232.7151,-1233.4569,-1236.1344,
-8,3159.0,6.7151318,6.7699637,-1233.6261,-1232.7479,-1233.5111,-1236.1747,
-7,3162.0,6.707384,6.760428,-1233.6798,-1232.8033,-1233.5564,-1236.2223,
-6,3163.0,6.705,6.75864,-1233.7131,-1232.8075,-1233.5624,-1236.2324,
-5,3164.0,6.706788,6.7517858,-1233.6422,-1232.7775,-1233.5225,-1236.1925,
-4,3164.0,6.703808,6.75715,-1233.6771,-1232.7554,-1233.4991,-1236.1782,
-3,3178.0,6.697848,6.749104,-1233.7012,-1232.793,-1233.551,-1236.2262,
-2,3179.0,6.70798,6.756256,-1233.7081,-1232.7887,-1233.5367,-1236.2039,
-1,3180.0,6.713642,6.76013,-1233.717,-1232.7938,-1233.543,-1236.213,
0,3216.0,6.71394,6.764302,-1233.6375,-1232.7556,-1233.5045,-1236.1869,
1,3217.0,6.71394,6.767282,-1233.6302,-1232.7509,-1233.4971,-1236.1772,
2,3218.0,6.71096,6.757448,-1233.6813,-1232.7876,-1233.5266,-1236.2072,
3,3219.0,6.718708,6.761024,-1233.666,-1232.773,-1233.5215,-1236.2026,
4,3219.0,6.714536,6.760726,-1233.6699,-1232.7721,-1233.5227,-1236.1973,
5,3222.0,6.70947,6.753574,-1233.6592,-1232.7673,-1233.5084,-1236.1946,
6,3224.0,6.713642,6.749104,-1233.6362,-1232.7533,-1233.4882,-1236.1842,
7,3225.0,6.713642,6.749104,-1233.6619,-1232.7819,-1233.5209,-1236.2148,
-8,3233.0,6.715728,6.7577457,-1233.6473,-1232.7957,-1233.5258,-1236.2059,
-7,3233.0,6.713642,6.758342,-1233.6127,-1232.769,-1233.4965,-1236.1836,
-6,3256.0,6.716622,6.76013,-1233.6029,-1232.7491,-1233.4917,-1236.1752,
-5,3257.0,6.713642,6.753872,-1233.5999,-1232.736,-1233.4834,-1236.166,
-4,3258.0,6.718708,6.765494,-1233.6302,-1232.7622,-1233.509,-1236.1803,
-3,3259.0,6.716026,6.75715,-1233.6428,-1232.7524,-1233.4911,-1236.1714,
-2,3259.0,6.726158,6.77056,-1233.5945,-1232.744,-1233.4915,-1236.1642,
-1,3262.0,6.735396,6.779202,-1233.5889,-1232.7062,-1233.4548,-1236.1356,
0,3264.0,6.739866,6.787546,-1233.6083,-1232.6648,-1233.4276,-1236.1001,
1,3264.0,6.737184,6.784864,-1233.5948,-1232.7151,-1233.4644,-1236.1412,
2,3265.0,6.730032,6.772348,-1233.6318,-1232.7345,-1233.4727,-1236.172,
3,3265.0,6.726158,6.773242,-1233.6404,-1232.7491,-1233.4888,-1236.1708,
4,3266.0,6.7273498,6.774434,-1233.6044,-1232.7405,-1233.4795,-1236.1549,
5,3266.0,6.732714,6.78397,-1233.6157,-1232.7351,-1233.4875,-1236.1478,
6,3279.0,6.7348,6.79291,-1233.6321,-1232.7399,-1233.484,-1236.1594,
7,3279.0,6.735992,6.79142,-1233.6139,-1232.7289,-1233.4792,-1236.1592,
-8,3280.0,6.738674,6.788738,-1233.6259,-1232.738,-1233.4971,-1236.16,
-7,3280.0,6.741654,6.79291,-1233.6062,-1232.7279,-1233.476,-1236.141,
-6,3281.0,6.738674,6.774732,-1233.5955,-1232.7241,-1233.4708,-1236.1431,
-5,3309.0,6.748508,6.783374,-1233.6184,-1232.7256,-1233.4756,-1236.1501,
-4,3310.0,6.755362,6.784864,-1233.6238,-1232.7163,-1233.4661,-1236.1309,
-3,3311.0,6.752084,6.78248,-1233.6116,-1232.7181,-1233.4756,-1236.1359,
-2,3311.0,6.753276,6.790526,-1233.6327,-1232.7444,-1233.4727,-1236.1392,
-1,3312.0,6.756256,6.797082,-1233.5823,-1232.7231,-1233.4739,-1236.1398,
0,3313.0,6.75715,6.790228,-1233.5928,-1232.7599,-1233.4875,-1236.1565,
1,3313.0,6.76162,6.792612,-1233.5707,-1232.708,-1233.4375,-1236.1123,
2,3314.0,6.7640038,6.7944,-1233.5465,-1232.7065,-1233.4381,-1236.11,
3,3314.0,6.7646,6.793506,-1233.5686,-1232.7241,-1233.4584,-1236.1276,
4,3315.0,6.757448,6.78993,-1233.576,-1232.7047,-1233.4557,-1236.1296,
5,3315.0,6.76907,6.799466,-1233.5322,-1232.7173,-1233.4506,-1236.1296,
6,3318.0,6.77056,6.798572,-1233.5438,-1232.6981,-1233.4497,-1236.1234,
7,3319.0,6.78099,6.803638,-1233.5582,-1232.6946,-1233.4521,-1236.1154,
-8,3319.0,6.78099,6.80781,-1233.5748,-1232.7035,-1233.4673,-1236.146,
-7,3320.0,6.786354,6.810194,-1233.5876,-1232.7223,-1233.4592,-1236.1404,
-6,3333.0,6.789632,6.81228,-1233.6085,-1232.7494,-1233.4948,-1236.1791,
-5,3353.0,6.78695,6.8069158,-1233.5972,-1232.7014,-1233.467,-1236.1365,
-4,3353.0,6.79291,6.804532,-1233.5826,-1232.7115,-1233.4619,-1236.1356,
-3,3364.0,6.801254,6.806618,-1233.5671,-1232.708,-1233.4404,-1236.1373,
-2,3364.0,6.80185,6.809598,-1233.5663,-1232.6964,-1233.4545,-1236.1168,
-1,3365.0,6.804532,6.81079,-1233.588,-1232.719,-1233.4783,-1236.1454,
0,3366.0,6.8093,6.810492,-1233.594,-1232.7333,-1233.4685,-1236.1526,
1,3383.0,6.809598,6.81675,-1233.5957,-1232.7396,-1233.4938,-1236.1704,
2,3384.0,6.810492,6.819432,-1233.613,-1232.7657,-1233.5055,-1236.1842,
3,3388.0,6.815558,6.822114,-1233.613,-1232.7122,-1233.4688,-1236.1332,
4,3389.0,6.810492,6.814366,-1233.6124,-1232.7485,-1233.4935,-1236.1663,
5,3389.0,6.81526,6.822114,-1233.6482,-1232.7455,-1233.4894,-1236.1704,
6,3390.0,6.821518,6.829266,-1233.6112,-1232.745,-1233.4795,-1236.1696,
7,3390.0,6.8191338,6.822114,-1233.6064,-1232.7322,-1233.4733,-1236.1582,
-8,3391.0,6.821816,6.821518,-1233.6064,-1232.7399,-1233.4756,-1236.1526,
-7,3396.0,6.820922,6.822114,-1233.6393,-1232.7566,-1233.5028,-1236.1821,
-6,3398.0,6.820624,6.822114,-1233.6276,-1232.7614,-1233.5018,-1236.1832,
-5,3415.0,6.820028,6.827478,-1233.661,-1232.7485,-1233.5105,-1236.1772,
-4,3416.0,6.8191338,6.82271,-1233.6947,-1232.7568,-1233.5215,-1236.1952,
-3,3417.0,6.829862,6.83314,-1233.6729,-1232.7545,-1233.5093,-1236.1923,
-2,3418.0,6.82867,6.828968,-1233.6884,-1232.7754,-1233.5316,-1236.2068,
-1,3419.0,6.831054,6.837908,-1233.6517,-1232.7676,-1233.5156,-1236.195,
0,3435.0,6.837908,6.8391,-1233.6523,-1232.7452,-1233.5037,-1236.1704,
1,3436.0,6.834928,6.826584,-1233.6464,-1232.7413,-1233.4878,-1236.1642,
2,3444.0,6.833438,6.823604,-1233.5876,-1232.7297,-1233.4691,-1236.1501,
3,3445.0,6.837908,6.833736,-1233.5975,-1232.7229,-1233.4658,-1236.1547,
4,3447.0,6.838206,6.833736,-1233.6085,-1232.7217,-1233.4792,-1236.1501,
5,3448.0,6.845656,6.837014,-1233.612,-1232.7366,-1233.4799,-1236.1627,
6,3449.0,6.852808,6.844464,-1233.6565,-1232.7471,-1233.4958,-1236.1708,
7,3450.0,6.857576,6.85251,-1233.6199,-1232.7351,-1233.4747,-1236.1526,
-8,3451.0,6.857576,6.855192,-1233.6083,-1232.7357,-1233.4712,-1236.1487,
-7,3477.0,6.854,6.839994,-1233.5897,-1232.7386,-1233.4733,-1236.1582,
-6,3479.0,6.849828,6.836716,-1233.613,-1232.7482,-1233.4896,-1236.1799,
-5,3479.0,6.85251,6.841484,-1233.6228,-1232.7589,-1233.4977,-1236.1731,
-4,3480.0,6.85847,6.840888,-1233.5808,-1232.7363,-1233.4819,-1236.1613,
-3,3481.0,6.85996,6.8495297,-1233.6041,-1232.7354,-1233.4834,-1236.1704,
-2,3482.0,6.872178,6.86443,-1233.6023,-1232.7241,-1233.4644,-1236.1534,
-1,3487.0,6.87337,6.86294,-1233.5802,-1232.7181,-1233.467,-1236.1505,
0,3492.0,6.869794,6.86294,-1233.585,-1232.7205,-1233.4532,-1236.158,
1,3493.0,6.871582,6.869496,-1233.5916,-1232.7151,-1233.4646,-1236.1544,
2,3493.0,6.86443,6.8689,-1233.6104,-1232.7554,-1233.4846,-1236.165,
3,3494.0,6.864728,6.869794,-1233.624,-1232.7426,-1233.4819,-1236.1603,
4,3499.0,6.87188,6.878734,-1233.6473,-1232.7473,-1233.4962,-1236.1671,
5,3500.0,6.869198,6.883502,-1233.5775,-1232.7518,-1233.5051,-1236.1761,
6,3501.0,6.886184,6.907938,-1233.6058,-1232.7506,-1233.5006,-1236.1619,
7,3538.0,6.884694,6.91956,-1233.6548,-1232.7587,-1233.5051,-1236.1761,
-8,3540.0,6.882906,6.929692,-1233.6079,-1232.7279,-1233.4813,-1236.1671,
-7,3541.0,6.882906,6.9475718,-1233.612,-1232.7396,-1233.4741,-1236.1522,
-6,3541.0,6.884098,6.9657497,-1233.6201,-1232.736,-1233.4679,-1236.1619,
-5,3544.0,6.887674,6.986908,-1233.607,-1232.7316,-1233.4688,-1236.1549,
-4,3545.0,6.887972,7.00151,-1233.655,-1232.744,-1233.4836,-1236.1675,
-3,3548.0,6.894528,7.034886,-1233.6008,-1232.7231,-1233.4718,-1236.157,
-2,3549.0,6.893634,7.063196,-1233.6201,-1232.7518,-1233.5001,-1236.1776,
-1,3550.0,6.893038,7.083758,-1233.6625,-1232.7616,-1233.4974,-1236.1838,
0,3553.0,6.890654,7.111174,-1233.5775,-1232.7372,-1233.4852,-1236.1621,
1,3553.0,6.89125,7.128458,-1233.6345,-1232.7637,-1233.518,-1236.1863,
2,3583.0,6.89125,7.139186,-1233.6187,-1232.7426,-1233.495,-1236.1597,
3,3585.0,6.890654,7.164516,-1233.5844,-1232.744,-1233.4896,-1236.1642,
4,3586.0,6.885588,7.187462,-1233.6298,-1232.7634,-1233.503,-1236.1869,
5,3586.0,6.8924417,7.205938,-1233.6575,-1232.7316,-1233.4968,-1236.1741,
6,3587.0,6.898402,7.23395,-1233.6187,-1232.7515,-1233.5055,-1236.1821,
7,3591.0,6.898104,7.264942,-1233.5948,-1232.7631,-1233.4954,-1236.1693,
-8,3591.0,6.898402,7.284908,-1233.6724,-1232.7893,-1233.5281,-1236.2008,
-7,3592.0,6.901084,7.303682,-1233.6422,-1232.7876,-1233.5349,-1236.2032,
-6,3593.0,6.896912,7.328714,-1233.6404,-1232.7709,-1233.5138,-1236.1954,
-5,3605.0,6.8986998,7.347786,-1233.6327,-1232.7756,-1233.5183,-1236.1871,
-4,3606.0,6.907044,7.377288,-1233.6315,-1232.7765,-1233.514,-1236.1772,
-3,3607.0,6.903468,7.396658,-1233.6437,-1232.7587,-1233.5001,-1236.1683,
-2,3607.0,6.89423,7.41275,-1233.6038,-1232.7554,-1233.4905,-1236.1613,
-1,3608.0,6.907044,7.437186,-1233.5775,-1232.7411,-1233.4884,-1236.1654,
0,3623.0,6.91509,7.468178,-1233.636,-1232.7614,-1233.5004,-1236.1815,
1,3624.0,6.913302,7.4860578,-1233.6041,-1232.7717,-1233.5001,-1236.1886,
2,3624.0,6.914792,7.514666,-1233.644,-1232.7765,-1233.5078,-1236.2086,
3,3625.0,6.91807,7.540592,-1233.6238,-1232.7738,-1233.5045,-1236.1815,
4,3634.0,6.916282,7.561154,-1233.6267,-1232.7748,-1233.4985,-1236.183,
5,3635.0,6.92105,7.583206,-1233.6879,-1232.7792,-1233.512,-1236.2053,
6,3635.0,6.92552,7.60496,-1233.6458,-1232.7583,-1233.5018,-1236.1794,
7,3654.0,6.927308,7.618072,-1233.6544,-1232.7491,-1233.4888,-1236.163,
-8,3658.0,6.935056,7.632972,-1233.6569,-1232.7556,-1233.4965,-1236.1761,
-7,3659.0,6.926712,7.64221,-1233.6058,-1232.7568,-1233.5078,-1236.1741,
-6,3659.0,6.927606,7.657706,-1233.63,-1232.7833,-1233.509,-1236.1884,
-5,3660.0,6.9353538,7.674394,-1233.6143,-1232.7545,-1233.4944,-1236.185,
-4,3668.0,6.93893,7.690784,-1233.6023,-1232.7631,-1233.5117,-1236.1842,
-3,3669.0,6.954128,7.709558,-1233.6058,-1232.762,-1233.5165,-1236.1708,
-2,3669.0,6.958896,7.731312,-1233.5737,-1232.733,-1233.4768,-1236.1555,
-1,3670.0,6.95383,7.73757,-1233.5566,-1232.7291,-1233.4679,-1236.1501,
0,3688.0,6.94638,7.73757,-1233.5892,-1232.7316,-1233.4884,-1236.1603,
1,3689.0,6.946976,7.750682,-1233.6038,-1232.7542,-1233.4923,-1236.1725,
2,3697.0,6.95234,7.756642,-1233.6079,-1232.7667,-1233.4929,-1236.1788,
3,3698.0,6.950552,7.767072,-1233.6035,-1232.7498,-1233.4894,-1236.1597,
4,3701.0,6.952042,7.7778,-1233.612,-1232.7715,-1233.509,-1236.1722,
5,3703.0,6.960982,7.7927,-1233.5752,-1232.7697,-1233.4971,-1236.1779,
6,3718.0,6.966048,7.800448,-1233.5754,-1232.7583,-1233.4927,-1236.1693,
7,3719.0,6.96426,7.802236,-1233.5978,-1232.7711,-1233.4985,-1236.1815,
-8,3720.0,6.963664,7.807004,-1233.6282,-1232.7542,-1233.4792,-1236.1681,
-7,3746.0,6.9597898,7.813858,-1233.6407,-1232.7676,-1233.5043,-1236.1749,
-6,3748.0,6.963068,7.817136,-1233.644,-1232.7744,-1233.5084,-1236.1848,
-5,3748.0,6.963664,7.832632,-1233.675,-1232.7822,-1233.5248,-1236.2161,
-4,3749.0,6.966048,7.836506,-1233.6813,-1232.7789,-1233.5209,-1236.1954,
-3,3750.0,6.97022,7.84634,-1233.675,-1232.7527,-1233.507,-1236.1848,
-2,3751.0,6.97171,7.84932,-1233.6768,-1232.7604,-1233.5093,-1236.1779,
-1,3752.0,6.9720078,7.858558,-1233.6252,-1232.7279,-1233.481,-1236.1603,
0,3754.0,6.9720078,7.865114,-1233.616,-1232.7291,-1233.4795,-1236.1592,
1,3757.0,6.964856,7.857068,-1233.649,-1232.7477,-1233.4991,-1236.1865,
2,3757.0,6.966942,7.856174,-1233.6342,-1232.7458,-1233.4786,-1236.1613,
3,3758.0,6.97022,7.861538,-1233.6714,-1232.7653,-1233.5039,-1236.188,
4,3769.0,6.970518,7.8672,-1233.6809,-1232.7628,-1233.4998,-1236.1869,
5,3770.0,6.981544,7.877034,-1233.6575,-1232.7515,-1233.5105,-1236.1925,
6,3772.0,6.9842257,7.886868,-1233.6451,-1232.7643,-1233.5165,-1236.1943,
7,3773.0,6.987206,7.897596,-1233.6267,-1232.7781,-1233.5188,-1236.2047,
-8,3810.0,6.98512,7.901768,-1233.6271,-1232.7738,-1233.5215,-1236.2026,
-7,3812.0,6.982736,7.907132,-1233.6199,-1232.7551,-1233.512,-1236.1907,
-6,3813.0,6.980948,7.907132,-1233.6434,-1232.7587,-1233.514,-1236.1865,
-5,3814.0,6.978266,7.90892,-1233.6451,-1232.769,-1233.5334,-1236.2039,
-4,3815.0,6.987802,7.924416,-1233.6532,-1232.7595,-1233.5382,-1236.1954,
-3,3818.0,6.9881,7.92829,-1233.6761,-1232.761,-1233.5475,-1236.2083,
-2,3819.0,6.987504,7.939614,-1233.6509,-1232.7607,-1233.5293,-1236.1985,
-1,3820.0,6.994358,7.953024,-1233.6703,-1232.77,-1233.5132,-1236.1931,
0,3821.0,6.992272,7.9568977,-1233.6238,-1232.7471,-1233.5039,-1236.1832,
1,3824.0,6.9842257,7.94766,-1233.6309,-1232.7572,-1233.5144,-1236.1892,
2,3824.0,6.988696,7.949448,-1233.6285,-1232.7626,-1233.5219,-1236.196,
3,3825.0,6.991676,7.955706,-1233.641,-1232.7426,-1233.5132,-1236.1904,
4,3837.0,6.997338,7.970308,-1233.658,-1232.7324,-1233.4929,-1236.1606,
5,3838.0,6.997338,7.972692,-1233.6523,-1232.7434,-1233.5004,-1236.1646,
6,3874.0,6.995252,7.9816318,-1233.6085,-1232.7434,-1233.4846,-1236.1752,
7,3876.0,6.996146,7.994446,-1233.6451,-1232.7542,-1233.5037,-1236.1772,
-8,3876.0,6.99108,7.9998097,-1233.6136,-1232.7229,-1233.4789,-1236.1487,
-7,3877.0,6.981842,7.994744,-1233.6095,-1232.7461,-1233.5004,-1236.1646,
-6,3878.0,6.986908,8.003982,-1233.6484,-1232.7479,-1233.5099,-1236.185,
-5,3879.0,6.987504,8.012028,-1233.6458,-1232.7363,-1233.4944,-1236.171,
-4,3880.0,6.9904838,8.018584,-1233.6434,-1232.7322,-1233.4718,-1236.1761,
-3,3881.0,6.994358,8.030802,-1233.6368,-1232.7343,-1233.4915,-1236.1747,
-2,3885.0,6.999722,8.03408,-1233.5969,-1232.7277,-1233.4768,-1236.1693,
-1,3886.0,7.001808,8.042126,-1233.6302,-1232.7343,-1233.4921,-1236.1654,
0,3887.0,7.005384,8.053748,-1233.6193,-1232.7223,-1233.4786,-1236.1472,
1,3888.0,7.006874,8.052854,-1233.6315,-1232.7258,-1233.4733,-1236.1621,
2,3923.0,7.005682,8.061198,-1233.5928,-1232.7277,-1233.4789,-1236.1621,
3,3924.0,7.003298,8.060006,-1233.6249,-1232.7548,-1233.5043,-1236.1898,
4,3925.0,7.002106,8.065668,-1233.6213,-1232.7479,-1233.5117,-1236.183,
5,3926.0,7.012834,8.082654,-1233.5903,-1232.7235,-1233.4718,-1236.1514,
6,3929.0,7.019092,8.08623,-1233.6244,-1232.7124,-1233.4681,-1236.1412,
7,3931.0,7.018496,8.09666,-1233.5916,-1232.7086,-1233.467,-1236.132,
-8,3932.0,7.021178,8.110368,-1233.593,-1232.7119,-1233.4637,-1236.1263,
-7,3933.0,7.018198,8.116924,-1233.5892,-1232.6886,-1233.4456,-1236.1276,
-6,3939.0,7.017006,8.121692,-1233.5665,-1232.7006,-1233.4766,-1236.1514,
-5,3940.0,7.01343,8.123778,-1233.5775,-1232.7488,-1233.514,-1236.1776,
-4,3971.0,7.015218,8.137784,-1233.594,-1232.7477,-1233.483,-1236.1646,
-3,3972.0,7.013728,8.141658,-1233.5865,-1232.739,-1233.5107,-1236.1772,
-2,3973.0,7.019986,8.156856,-1233.6271,-1232.7533,-1233.509,-1236.1794,
-1,3974.0,7.023562,8.175332,-1233.6375,-1232.7554,-1233.5072,-1236.195,
0,3975.0,7.027734,8.182782,-1233.6425,-1232.7494,-1233.5212,-1236.191,
1,3979.0,7.021178,8.176524,-1233.6484,-1232.7822,-1233.551,-1236.2163,
2,3980.0,7.023562,8.179802,-1233.6693,-1232.7798,-1233.5302,-1236.2068,
3,3981.0,7.019688,8.1801,-1233.6205,-1232.7673,-1233.5302,-1236.2136,
4,3982.0,7.013728,8.182484,-1233.6726,-1232.7905,-1233.537,-1236.2175,
5,3997.0,7.012536,8.18755,-1233.624,-1232.7798,-1233.5415,-1236.2032,
6,3998.0,7.017602,8.19798,-1233.6238,-1232.7616,-1233.518,-1236.1874,
7,3999.0,7.016708,8.19947,-1233.6637,-1232.7798,-1233.5281,-1236.2051,
-8,4013.0,7.022966,8.206026,-1233.6711,-1232.7994,-1233.5519,-1236.2285,
-7,4015.0,7.024754,8.217648,-1233.6649,-1232.7882,-1233.5487,-1236.2211,
-6,4023.0,7.028032,8.223906,-1233.6788,-1232.7849,-1233.5543,-1236.231,
-5,4026.0,7.034886,8.226588,-1233.6708,-1232.7694,-1233.5334,-1236.208,
-4,4027.0,7.034588,8.231058,-1233.6718,-1232.7727,-1233.5287,-1236.2041,
-3,4028.0,7.034886,8.23225,-1233.6443,-1232.773,-1233.5192,-1236.2051,
-2,4029.0,7.033396,8.23374,-1233.6106,-1232.7806,-1233.5305,-1236.191,
-1,4040.0,7.021476,8.229568,-1233.7075,-1232.7924,-1233.54,-1236.2205,
0,4041.0,7.025052,8.241786,-1233.661,-1232.7711,-1233.5212,-1236.2072,
1,4042.0,7.025648,8.24566,-1233.6792,-1232.7717,-1233.5374,-1236.2184,
2,4073.0,7.028926,8.258176,-1233.6893,-1232.7727,-1233.5254,-1236.2002,
3,4075.0,7.03131,8.265626,-1233.6562,-1232.773,-1233.5382,-1236.2024,
4,4076.0,7.037866,8.274864,-1233.6482,-1232.758,-1233.5186,-1236.1985,
5,4077.0,7.042336,8.270692,-1233.5975,-1232.7527,-1233.5087,-1236.1749,
6,4078.0,7.04323,8.283208,-1233.6345,-1232.7664,-1233.5103,-1236.1818,
7,4079.0,7.047104,8.289764,-1233.6395,-1232.7539,-1233.4998,-1236.1886,
-8,4081.0,7.04621,8.295426,-1233.6321,-1232.7452,-1233.4927,-1236.1805,
-7,4084.0,7.04323,8.293042,-1233.6451,-1232.7566,-1233.5084,-1236.2032,
-6,4085.0,7.041144,8.30228,-1233.6174,-1232.7661,-1233.5215,-1236.2039,
-5,4085.0,7.042634,8.310922,-1233.6276,-1232.7485,-1233.5167,-1236.202,
-4,4092.0,7.045614,8.313902,-1233.6252,-1232.7572,-1233.5165,-1236.1901,
-3,4093.0,7.044124,8.31271,-1233.6139,-1232.7727,-1233.5287,-1236.2008,
-2,4094.0,7.047104,8.32314,-1233.635,-1232.7903,-1233.5424,-1236.2012,
-1,4126.0,7.051872,8.33208,-1233.6312,-1232.7771,-1233.5171,-1236.1979,
0,4128.0,7.052766,8.343702,-1233.6575,-1232.7804,-1233.5417,-1236.2211,
1,4129.0,7.053958,8.349662,-1233.6366,-1232.7673,-1233.5198,-1236.197,
2,4130.0,7.04919,8.362774,-1233.6271,-1232.7789,-1233.5386,-1236.2,
3,4133.0,7.048296,8.360986,-1233.6458,-1232.7891,-1233.5436,-1236.2161,
4,4135.0,7.054852,8.369628,-1233.6335,-1232.7777,-1233.5188,-1236.1877,
5,4136.0,7.05515,8.385124,-1233.6199,-1232.7812,-1233.538,-1236.214,
6,4137.0,7.04919,8.382144,-1233.6687,-1232.795,-1233.5403,-1236.214,
7,4141.0,7.052468,8.395554,-1233.6747,-1232.7646,-1233.514,-1236.2217,
-8,4142.0,7.04919,8.400918,-1233.6437,-1232.7858,-1233.5293,-1236.2146,
-7,4174.0,7.042634,8.405388,-1233.6857,-1232.7924,-1233.5364,-1236.2205,
-6,4175.0,7.047104,8.408666,-1233.678,-1232.812,-1233.5588,-1236.2357,
-5,4176.0,7.043826,8.411944,-1233.6995,-1232.811,-1233.5576,-1236.2297,
-4,4177.0,7.0515738,8.4313135,-1233.6484,-1232.787,-1233.5248,-1236.2065,
-3,4177.0,7.048296,8.43489,-1233.6455,-1232.7822,-1233.5269,-1236.1991,
-2,4178.0,7.050978,8.442042,-1233.6451,-1232.7899,-1233.5262,-1236.208,
-1,4179.0,7.05366,8.446214,-1233.6693,-1232.7932,-1233.5361,-1236.2101,
0,4180.0,7.0515738,8.441446,-1233.6333,-1232.7882,-1233.5337,-1236.2148,
1,4180.0,7.047402,8.451876,-1233.6794,-1232.7843,-1233.5165,-1236.1874,
2,4183.0,7.057832,8.457836,-1233.6372,-1232.7634,-1233.5114,-1236.172,
3,4185.0,7.052468,8.465882,-1233.6372,-1232.7568,-1233.5066,-1236.1758,
4,4186.0,7.050382,8.465584,-1233.6569,-1232.7812,-1233.5328,-1236.2029,
5,4187.0,7.057832,8.476312,-1233.6205,-1232.7646,-1233.518,-1236.183,
6,4191.0,7.061706,8.479292,-1233.6083,-1232.7539,-1233.495,-1236.1609,
7,4192.0,7.061408,8.48406,-1233.6747,-1232.7845,-1233.5183,-1236.2035,
-8,4227.0,7.064388,8.490914,-1233.6062,-1232.7512,-1233.5087,-1236.1654,
-7,4229.0,7.063494,8.502834,-1233.6133,-1232.7643,-1233.5114,-1236.1594,
-6,4229.0,7.062898,8.503132,-1233.6085,-1232.7754,-1233.5314,-1236.191,
-5,4230.0,7.056342,8.49896,-1233.6327,-1232.7709,-1233.5293,-1236.1896,
-4,4231.0,7.056938,8.51237,-1233.6788,-1232.7908,-1233.5543,-1236.2163,
-3,4233.0,7.054852,8.517138,-1233.6515,-1232.7876,-1233.5436,-1236.2152,
-2,4236.0,7.053064,8.520714,-1233.6711,-1232.7891,-1233.537,-1236.2059,
-1,4237.0,7.049786,8.524886,-1233.6536,-1232.7903,-1233.5403,-1236.2205,
0,4237.0,7.048892,8.525482,-1233.6449,-1232.7825,-1233.5269,-1236.1991,
1,4242.0,7.05962,8.534422,-1233.6649,-1232.7953,-1233.5374,-1236.2188,
2,4243.0,7.04472,8.52727,-1233.6833,-1232.823,-1233.557,-1236.2262,
3,4276.0,7.05068,8.54515,-1233.6765,-1232.809,-1233.546,-1236.2163,
4,4278.0,7.05813,8.5526,-1233.6896,-1232.817,-1233.5415,-1236.2051,
5,4279.0,7.060514,8.558262,-1233.666,-1232.7806,-1233.5215,-1236.1931,
6,4279.0,7.062004,8.565116,-1233.6261,-1232.7837,-1233.5254,-1236.1874,
7,4280.0,7.061706,8.572864,-1233.6538,-1232.7866,-1233.5239,-1236.1943,
-8,4282.0,7.064388,8.576142,-1233.6989,-1232.7988,-1233.534,-1236.2014,
-7,4285.0,7.066176,8.578824,-1233.6562,-1232.7845,-1233.5117,-1236.1794,
-6,4286.0,7.067666,8.582996,-1233.6473,-1232.786,-1233.5266,-1236.1904,
-5,4286.0,7.064984,8.579122,-1233.6526,-1232.7843,-1233.5198,-1236.2045,
-4,4293.0,7.06707,8.581506,-1233.6511,-1232.7908,-1233.5221,-1236.2115,
-3,4293.0,7.065282,8.583294,-1233.644,-1232.7932,-1233.5463,-1236.2062,
-2,4325.0,7.0637918,8.582102,-1233.6172,-1232.7855,-1233.5353,-1236.2024,
-1,4327.0,7.064984,8.585976,-1233.6404,-1232.8013,-1233.5529,-1236.2072,
0,4328.0,7.076308,8.593426,-1233.6532,-1232.7947,-1233.538,-1236.1973,
1,4329.0,7.073328,8.587168,-1233.6222,-1232.7802,-1233.5156,-1236.1791,
2,4329.0,7.073924,8.577632,-1233.6273,-1232.7649,-1233.5209,-1236.194,
3,4332.0,7.074222,8.59134,-1233.6133,-1232.7798,-1233.5231,-1236.1964,
4,4336.0,7.069156,8.585678,-1233.6368,-1232.818,-1233.5543,-1236.2238,
5,4337.0,7.068262,8.588956,-1233.6511,-1232.8096,-1233.5537,-1236.225,
6,4343.0,7.073626,8.589552,-1233.6738,-1232.8063,-1233.5513,-1236.2095,
7,4344.0,7.073626,8.588956,-1233.6348,-1232.8058,-1233.5605,-1236.2256,
-8,4345.0,7.062302,8.577036,-1233.6577,-1232.7986,-1233.5465,-1236.2041,
-7,4345.0,7.067368,8.5660095,-1233.6819,-1232.8182,-1233.5593,-1236.2208,
-6,4378.0,7.07154,8.5597515,-1233.6586,-1232.8191,-1233.5686,-1236.225,
-5,4380.0,7.064984,8.550216,-1233.6505,-1232.8132,-1233.5632,-1236.2244,
-4,4380.0,7.05664,8.550216,-1233.6494,-1232.8292,-1233.5576,-1236.2372,
-3,4381.0,7.0626,8.551706,-1233.6449,-1232.8215,-1233.5546,-1236.233,
-2,4382.0,7.040846,8.506112,-1233.7024,-1232.8478,-1233.5889,-1236.2601,
-1,4383.0,7.020582,8.484358,-1233.689,-1232.8654,-1233.6217,-1236.2974,
0,4384.0,7.01641,8.450684,-1233.7239,-1232.8978,-1233.6375,-1236.3015,
1,4386.0,6.991974,8.41552,-1233.7534,-1232.9348,-1233.6544,-1236.3153,
2,4389.0,6.952638,8.39615,-1233.8302,-1232.9648,-1233.7117,-1236.3773,
3,4390.0,6.940718,8.346086,-1233.8529,-1232.9816,-1233.711,-1236.3788,
4,4391.0,6.92105,8.310028,-1233.8744,-1233.0221,-1233.7593,-1236.4148,
5,4392.0,6.902574,8.242978,-1233.8835,-1233.0593,-1233.7781,-1236.453,
6,4393.0,6.865622,8.224502,-1233.9811,-1233.0939,-1233.8359,-1236.525,
7,4394.0,6.835524,8.166988,-1234.0171,-1233.1267,-1233.8756,-1236.5471,
-8,4394.0,6.832246,8.129142,-1234.0037,-1233.1443,-1233.8827,-1236.556,
-7,4397.0,6.814962,8.116626,-1234.0299,-1233.1935,-1233.9236,-1236.5891,
-6,4398.0,6.8006577,8.11156,-1234.0264,-1233.1898,-1233.9209,-1236.5885,
-5,4399.0,6.7946978,8.075204,-1234.0281,-1233.2101,-1233.93,-1236.612,
-4,4433.0,6.80185,8.062688,-1234.0791,-1233.233,-1233.9521,-1236.6279,
-3,4435.0,6.79887,8.058516,-1234.075,-1233.2367,-1233.9617,-1236.6296,
-2,4436.0,6.786354,8.042722,-1234.1086,-1233.2456,-1233.973,-1236.647,
-1,4436.0,6.78695,8.03706,-1234.124,-1233.2051,-1233.9581,-1236.6338,
0,4437.0,6.783374,8.01769,-1234.0638,-1233.195,-1233.9385,-1236.6133,
1,4442.0,6.776818,8.003386,-1234.0868,-1233.233,-1233.9774,-1236.6487,
2,4443.0,6.778606,8.001598,-1234.1068,-1233.2498,-1233.9962,-1236.6642,
3,4444.0,6.771752,8.00428,-1234.0919,-1233.2611,-1233.9954,-1236.6833,
4,4445.0,6.766388,7.984612,-1234.1205,-1233.257,-1234.0043,-1236.6732,
5,4477.0,6.779798,7.986996,-1234.0934,-1233.2739,-1234.013,-1236.6678,
6,4479.0,6.768176,7.975672,-1234.1068,-1233.2843,-1234.0123,-1236.6884,
7,4480.0,6.772348,7.980142,-1234.124,-1233.2789,-1234.0111,-1236.6925,
-8,4481.0,6.766388,7.985208,-1234.1519,-1233.2756,-1234.0183,-1236.6923,
-7,4481.0,6.784268,7.990572,-1234.1375,-1233.2671,-1234.0117,-1236.6875,
-6,4482.0,6.7762218,7.958686,-1234.1736,-1233.2938,-1234.0425,-1236.7107,
-5,4483.0,6.767282,7.95064,-1234.198,-1233.3002,-1234.0427,-1236.7208,
-4,4486.0,6.765196,7.960176,-1234.156,-1233.3029,-1234.0377,-1236.7065,
-3,4488.0,6.762514,7.957792,-1234.1807,-1233.3219,-1234.0466,-1236.7292,
-2,4489.0,6.75566,7.943488,-1234.1965,-1233.33,-1234.0564,-1236.7438,
-1,4495.0,6.766388,7.957494,-1234.1995,-1233.337,-1234.0632,-1236.7408,
0,4496.0,6.7762218,7.967924,-1234.1864,-1233.3279,-1234.051,-1236.7256,
1,4497.0,6.77503,7.960176,-1234.1443,-1233.2992,-1234.026,-1236.7158,
2,4533.0,6.77056,7.962858,-1234.1604,-1233.2998,-1234.0421,-1236.7233,
3,4535.0,6.772944,7.978056,-1234.1736,-1233.3124,-1234.0427,-1236.733,
4,4535.0,6.783076,7.986102,-1234.1455,-1233.293,-1234.0249,-1236.7084,
5,4536.0,6.797678,7.9938498,-1234.1176,-1233.2661,-1234.0105,-1236.6887,
6,4537.0,6.80483,8.009644,-1234.1277,-1233.2775,-1234.0123,-1236.6884,
7,4540.0,6.800956,8.020372,-1234.1223,-1233.2671,-1233.9989,-1236.6782,
-8,4543.0,6.80036,8.034974,-1234.122,-1233.2438,-1233.9885,-1236.6567,
-7,4544.0,6.811684,8.049278,-1234.0985,-1233.2458,-1233.987,-1236.6458,
-6,4545.0,6.825392,8.076098,-1234.0472,-1233.2229,-1233.9644,-1236.6311,
-5,4547.0,6.835226,8.09666,-1234.0051,-1233.1666,-1233.9187,-1236.5912,
-4,4548.0,6.837014,8.110964,-1234.0148,-1233.1693,-1233.8994,-1236.5922,
-3,4581.0,6.844762,8.13391,-1233.9819,-1233.1633,-1233.886,-1236.5746,
-2,4583.0,6.846252,8.15328,-1234.0004,-1233.1594,-1233.9021,-1236.5906,
-1,4584.0,6.856384,8.169968,-1234.0078,-1233.1451,-1233.8767,-1236.5656,
0,4585.0,6.86443,8.17712,-1233.9995,-1233.1359,-1233.8618,-1236.5477,
1,4585.0,6.868304,8.19798,-1233.9912,-1233.1296,-1233.8738,-1236.5426,
2,4588.0,6.875456,8.220628,-1233.9569,-1233.1124,-1233.8403,-1236.514,
3,4591.0,6.874264,8.234634,-1233.9742,-1233.112,-1233.8374,-1236.5176,
4,4592.0,6.887078,8.246554,-1233.9191,-1233.0862,-1233.821,-1236.4956,
5,4593.0,6.884694,8.250726,-1233.8804,-1233.0784,-1233.8055,-1236.4861,
6,4597.0,6.88529,8.26354,-1233.9259,-1233.0841,-1233.8064,-1236.4956,
7,4598.0,6.899892,8.28142,-1233.9453,-1233.0709,-1233.8088,-1236.4855,
-8,4632.0,6.918666,8.309134,-1233.9042,-1233.0575,-1233.788,-1236.4667,
-7,4633.0,6.9231358,8.323438,-1233.9131,-1233.0543,-1233.7838,-1236.453,
-6,4634.0,6.936248,8.33804,-1233.8953,-1233.012,-1233.739,-1236.4231,
-5,4635.0,6.939526,8.348172,-1233.8655,-1233.0084,-1233.7233,-1236.419,
-4,4636.0,6.94042,8.349662,-1233.838,-1232.9983,-1233.7268,-1236.4098,
-3,4640.0,6.943698,8.36486,-1233.875,-1233.0343,-1233.7423,-1236.4365,
-2,4641.0,6.946082,8.3699255,-1233.8746,-1233.0062,-1233.751,-1236.4226,
-1,4642.0,6.948466,8.373502,-1233.8527,-1232.9926,-1233.7295,-1236.4011,
0,4643.0,6.960088,8.386018,-1233.8558,-1232.9834,-1233.7257,-1236.4008,
1,4644.0,6.960088,8.398832,-1233.8225,-1232.9756,-1233.7218,-1236.3937,
2,4656.0,6.969624,8.410156,-1233.8606,-1232.9756,-1233.7206,-1236.402,
3,4657.0,6.981246,8.42297,-1233.8254,-1232.9774,-1233.7042,-1236.4011,
4,4658.0,6.987206,8.434294,-1233.8192,-1232.9652,-1233.7042,-1236.3883,
5,4659.0,6.999424,8.443532,-1233.7957,-1232.952,-1233.7156,-1236.385,
6,4674.0,7.003,8.455154,-1233.7748,-1232.9365,-1233.697,-1236.3519,
7,4676.0,7.0086617,8.459922,-1233.7977,-1232.9583,-1233.7051,-1236.3701,
-8,4682.0,7.00747,8.469458,-1233.801,-1232.9288,-1233.6863,-1236.3501,
-7,4683.0,7.00747,8.478994,-1233.7817,-1232.9086,-1233.6604,-1236.331,
-6,4684.0,7.011642,8.473332,-1233.7689,-1232.8999,-1233.65,-1236.3323,
-5,4685.0,7.018496,8.483762,-1233.7421,-1232.8821,-1233.6261,-1236.3037,
-4,4706.0,7.021178,8.491808,-1233.7716,-1232.8877,-1233.6323,-1236.3143,
-3,4713.0,7.023264,8.499556,-1233.7266,-1232.8575,-1233.5975,-1236.2899,
-2,4715.0,7.02684,8.502834,-1233.7236,-1232.8641,-1233.613,-1236.2947,
-1,4716.0,7.0393558,8.514456,-1233.734,-1232.8629,-1233.6068,-1236.2717,
0,4717.0,7.042634,8.52131,-1233.7069,-1232.8376,-1233.5951,-1236.267,
1,4719.0,7.0393558,8.523992,-1233.7137,-1232.8511,-1233.5883,-1236.268,
2,4722.0,7.04323,8.527568,-1233.7284,-1232.8594,-1233.6017,-1236.2917,
3,4723.0,7.0453157,8.535018,-1233.7382,-1232.8763,-1233.6222,-1236.309,
4,4731.0,7.050382,8.54068,-1233.753,-1232.8666,-1233.6187,-1236.2974,
5,4732.0,7.055746,8.54813,-1233.7129,-1232.8314,-1233.582,-1236.2664,
6,4733.0,7.060514,8.556474,-1233.7108,-1232.8228,-1233.5754,-1236.2572,
7,4766.0,7.06111,8.562136,-1233.6991,-1232.8116,-1233.5775,-1236.2527,
-8,4767.0,7.05366,8.562434,-1233.6526,-1232.8257,-1233.5829,-1236.2491,
-7,4768.0,7.051276,8.567202,-1233.7412,-1232.8546,-1233.5955,-1236.2775,
-6,4769.0,7.050084,8.563328,-1233.7555,-1232.8525,-1233.6025,-1236.2673,
-5,4770.0,7.0697517,8.580612,-1233.7137,-1232.8228,-1233.5835,-1236.2479,
-4,4771.0,7.0626,8.582102,-1233.7003,-1232.8174,-1233.5663,-1236.2477,
-3,4776.0,7.070348,8.587764,-1233.6693,-1232.8063,-1233.5564,-1236.2188,
-2,4777.0,7.076308,8.59134,-1233.6693,-1232.8073,-1233.5564,-1236.2277,
-1,4777.0,7.075414,8.594022,-1233.686,-1232.8096,-1233.5638,-1236.2363,
0,4778.0,7.077202,8.599088,-1233.7191,-1232.8176,-1233.5808,-1236.242,
1,4790.0,7.0775,8.59879,-1233.7262,-1232.8188,-1233.5754,-1236.2306,
2,4791.0,7.081076,8.60773,-1233.7251,-1232.8197,-1233.5695,-1236.233,
3,4808.0,7.086738,8.616074,-1233.7059,-1232.8271,-1233.5841,-1236.2357,
4,4810.0,7.082566,8.610412,-1233.6583,-1232.8182,-1233.5698,-1236.2223,
5,4818.0,7.084354,8.610114,-1233.6792,-1232.8323,-1233.588,-1236.2605,
6,4819.0,7.08495,8.615776,-1233.6931,-1232.8304,-1233.5901,-1236.2465,
7,4819.0,7.084354,8.619054,-1233.7012,-1232.8135,-1233.5808,-1236.2355,
-8,4820.0,7.088824,8.622034,-1233.6848,-1232.8013,-1233.5663,-1236.2274,
-7,4847.0,7.0924,8.623226,-1233.6503,-1232.8182,-1233.5701,-1236.219,
-6,4849.0,7.092102,8.623822,-1233.6627,-1232.826,-1233.5725,-1236.2355,
-5,4849.0,7.089122,8.62561,-1233.6879,-1232.8156,-1233.5903,-1236.2301,
-4,4850.0,7.094188,8.624716,-1233.7045,-1232.8221,-1233.5839,-1236.2285,
-3,4851.0,7.09985,8.637232,-1233.7367,-1232.8337,-1233.5969,-1236.2498,
-2,4852.0,7.109386,8.642596,-1233.6511,-1232.7897,-1233.5463,-1236.1907,
-1,4856.0,7.109386,8.640212,-1233.6929,-1232.7944,-1233.5605,-1236.1973,
0,4857.0,7.103426,8.634848,-1233.7098,-1232.834,-1233.5769,-1236.2274,
1,4858.0,7.108194,8.637232,-1233.6985,-1232.8325,-1233.587,-1236.2268,
2,4877.0,7.107002,8.637828,-1233.7117,-1232.8153,-1233.5752,-1236.2297,
3,4878.0,7.103128,8.627696,-1233.6755,-1232.8087,-1233.5728,-1236.2328,
4,4887.0,7.105512,8.626504,-1233.6703,-1232.8129,-1233.5781,-1236.2238,
5,4889.0,7.11177,8.635146,-1233.6312,-1232.7926,-1233.546,-1236.2047,
6,4892.0,7.116836,8.638126,-1233.6697,-1232.7944,-1233.5469,-1236.2045,
7,4895.0,7.123094,8.641404,-1233.6881,-1232.7953,-1233.5483,-1236.208,
-8,4896.0,7.1189218,8.637232,-1233.7098,-1232.7711,-1233.5262,-1236.1747,
-7,4896.0,7.119518,8.636338,-1233.6974,-1232.7866,-1233.5438,-1236.1735,
-6,4900.0,7.122498,8.639616,-1233.6794,-1232.7968,-1233.5498,-1236.202,
-5,4901.0,7.123392,8.642298,-1233.6622,-1232.8009,-1233.5537,-1236.1975,
-4,4934.0,7.132332,8.649152,-1233.6697,-1232.7957,-1233.5409,-1236.2024,
-3,4936.0,7.12667,8.645278,-1233.68,-1232.7924,-1233.5388,-1236.1927,
-2,4937.0,7.123392,8.641106,-1233.6497,-1232.7792,-1233.532,-1236.1946,
-1,4937.0,7.126372,8.642596,-1233.6434,-1232.7631,-1233.5302,-1236.1826,
0,4938.0,7.120412,8.63455,-1233.6747,-1232.7864,-1233.534,-1236.1886,
1,4939.0,7.123392,8.635742,-1233.6494,-1232.8019,-1233.5546,-1236.2169,
2,4942.0,7.1189218,8.63157,-1233.653,-1232.809,-1233.563,-1236.2244,
3,4945.0,7.118624,8.636338,-1233.7032,-1232.8182,-1233.563,-1236.2316,
4,4946.0,7.121604,8.639914,-1233.6792,-1232.8234,-1233.5632,-1236.2312,
5,4947.0,7.129054,8.639914,-1233.7161,-1232.8221,-1233.5614,-1236.2355,
6,4948.0,7.132332,8.643192,-1233.6509,-1232.8137,-1233.5552,-1236.2205,
7,4949.0,7.124584,8.640808,-1233.6691,-1232.8182,-1233.5564,-1236.2229,
-8,4952.0,7.129352,8.641106,-1233.6902,-1232.8298,-1233.5752,-1236.2279,
-7,4953.0,7.136206,8.64349,-1233.6926,-1232.7977,-1233.5421,-1236.2008,
-6,4987.0,7.133822,8.644384,-1233.69,-1232.7932,-1233.5552,-1236.2014,
-5,4989.0,7.13263,8.642894,-1233.6589,-1232.8141,-1233.5591,-1236.2262,
-4,4990.0,7.13263,8.63902,-1233.6321,-1232.8054,-1233.5436,-1236.219,
-3,4991.0,7.129948,8.638424,-1233.6246,-1232.8007,-1233.5492,-1236.2244,
-2,4992.0,7.126074,8.637232,-1233.6321,-1232.8087,-1233.5543,-1236.219,
-1,4993.0,7.12816,8.64349,-1233.6937,-1232.8105,-1233.551,-1236.2134,
0,4997.0,7.12667,8.636934,-1233.6631,-1232.8153,-1233.5773,-1236.227,
1,4998.0,7.129054,8.639914,-1233.653,-1232.8069,-1233.5573,-1236.2128,
2,4999.0,7.133226,8.639616,-1233.672,-1232.8319,-1233.5719,-1236.2471,
3,5013.0,7.1311398,8.642894,-1233.636,-1232.815,-1233.5552,-1236.2316,
4,5014.0,7.132928,8.648854,-1233.658,-1232.792,-1233.5388,-1236.2076,
5,5015.0,7.133524,8.64945,-1233.6575,-1232.7935,-1233.5469,-1236.2068,
6,5018.0,7.139782,8.648854,-1233.6732,-1232.764,-1233.513,-1236.1877,
7,5045.0,7.1433578,8.657794,-1233.6649,-1232.7649,-1233.5165,-1236.1907,
-8,5047.0,7.140974,8.653622,-1233.6163,-1232.742,-1233.4944,-1236.1702,
-7,5048.0,7.131438,8.654218,-1233.6309,-1232.7643,-1233.5192,-1236.1818,
-6,5048.0,7.134716,8.655708,-1233.618,-1232.7812,-1233.5272,-1236.1877,
-5,5049.0,7.141868,8.656602,-1233.6273,-1232.7845,-1233.5281,-1236.1848,
-4,5054.0,7.139782,8.656006,-1233.6685,-1232.7676,-1233.5183,-1236.185,
-3,5057.0,7.13859,8.650046,-1233.6478,-1232.7694,-1233.5165,-1236.1901,
-2,5058.0,7.14902,8.662264,-1233.6476,-1232.7742,-1233.5153,-1236.1779,
-1,5058.0,7.148424,8.659284,-1233.6589,-1232.7887,-1233.5483,-1236.2018,
0,5097.0,7.145742,8.648258,-1233.6553,-1232.7604,-1233.5177,-1236.1752,
1,5099.0,7.146338,8.649748,-1233.6583,-1232.756,-1233.5194,-1236.1805,
2,5102.0,7.148126,8.64498,-1233.6178,-1232.7667,-1233.5123,-1236.1863,
3,5103.0,7.14753,8.648854,-1233.6285,-1232.7715,-1233.5171,-1236.1952,
4,5104.0,7.146338,8.648556,-1233.6383,-1232.7676,-1233.5227,-1236.1979,
5,5105.0,7.141272,8.640808,-1233.6309,-1232.7657,-1233.5165,-1236.2041,
6,5106.0,7.145742,8.646172,-1233.6536,-1232.7806,-1233.546,-1236.2018,
7,5107.0,7.14157,8.638722,-1233.6327,-1232.7715,-1233.5374,-1236.1925,
-8,5108.0,7.139782,8.631272,-1233.6616,-1232.7628,-1233.5361,-1236.2014,
-7,5109.0,7.136802,8.6271,-1233.6366,-1232.7717,-1233.5334,-1236.2188,
-6,5110.0,7.137696,8.640212,-1233.6538,-1232.7905,-1233.543,-1236.2181,
-5,5113.0,7.140676,8.646172,-1233.7028,-1232.8042,-1233.5525,-1236.2253,
-4,5114.0,7.143954,8.645576,-1233.6809,-1232.7822,-1233.5427,-1236.2148,
-3,5115.0,7.145444,8.65243,-1233.6687,-1232.7944,-1233.5394,-1236.2134,
-2,5116.0,7.146338,8.652728,-1233.6929,-1232.7816,-1233.5343,-1236.2103,
-1,5121.0,7.152298,8.661668,-1233.6381,-1232.775,-1233.5242,-1236.1975,
0,5122.0,7.15498,8.6569,-1233.6473,-1232.7872,-1233.5496,-1236.2227,
1,5123.0,7.154682,8.65541,-1233.6697,-1232.7828,-1233.5504,-1236.2076,
2,5124.0,7.148424,8.652728,-1233.6613,-1232.7727,-1233.5471,-1236.2035,
3,5162.0,7.146338,8.649152,-1233.6786,-1232.7705,-1233.543,-1236.2113,
4,5164.0,7.14604,8.652132,-1233.6589,-1232.7595,-1233.5262,-1236.2002,
5,5165.0,7.143954,8.65392,-1233.6681,-1232.7926,-1233.5463,-1236.2268,
6,5166.0,7.138888,8.64945,-1233.7021,-1232.806,-1233.5632,-1236.2301,
7,5169.0,7.136206,8.644682,-1233.7173,-1232.8081,-1233.5812,-1236.2363,
-8,5170.0,7.145444,8.650344,-1233.6794,-1232.798,-1233.5614,-1236.2312,
-7,5171.0,7.14753,8.653324,-1233.6761,-1232.7795,-1233.5386,-1236.2157,
-6,5172.0,7.142762,8.65243,-1233.6705,-1232.7802,-1233.5355,-1236.2227,
-5,5174.0,7.145444,8.649748,-1233.635,-1232.7771,-1233.526,-1236.2032,
-4,5175.0,7.145146,8.649152,-1233.6323,-1232.7717,-1233.5082,-1236.1964,
-3,5176.0,7.14157,8.648854,-1233.6821,-1232.7744,-1233.5334,-1236.2074,
-2,5177.0,7.142166,8.645576,-1233.6464,-1232.7649,-1233.5215,-1236.1886,
-1,5177.0,7.145146,8.650642,-1233.661,-1232.7471,-1233.4962,-1236.194,
0,5178.0,7.144848,8.649748,-1233.6678,-1232.7423,-1233.5066,-1236.1946,
1,5179.0,7.142762,8.638126,-1233.6217,-1232.7646,-1233.5171,-1236.2119,
2,5188.0,7.145444,8.648854,-1233.6464,-1232.7721,-1233.5275,-1236.1997,
3,5188.0,7.146338,8.648854,-1233.6575,-1232.7533,-1233.5111,-1236.1722,
4,5189.0,7.142762,8.641702,-1233.6741,-1232.7765,-1233.5322,-1236.1923,
5,5190.0,7.14753,8.650344,-1233.6228,-1232.775,-1233.5295,-1236.2083,
6,5217.0,7.15051,8.65243,-1233.6199,-1232.7765,-1233.538,-1236.2059,
7,5218.0,7.150212,8.651834,-1233.6691,-1232.7855,-1233.5415,-1236.2142,
-8,5219.0,7.154682,8.654814,-1233.709,-1232.804,-1233.5576,-1236.2211,
-7,5220.0,7.154682,8.648258,-1233.7051,-1232.812,-1233.5713,-1236.2363,
-6,5220.0,7.159152,8.65988,-1233.6323,-1232.7754,-1233.5334,-1236.1979,
-5,5221.0,7.157662,8.65541,-1233.6399,-1232.7568,-1233.5275,-1236.1946,
-4,5221.0,7.156172,8.651834,-1233.6362,-1232.7622,-1233.5156,-1236.1954,
-3,5222.0,7.150212,8.647662,-1233.6041,-1232.7604,-1233.509,-1236.1818,
-2,5224.0,7.145742,8.64051,-1233.6279,-1232.7684,-1233.5198,-1236.1973,
-1,5225.0,7.152,8.645874,-1233.6571,-1232.768,-1233.5287,-1236.2188,
0,5226.0,7.144848,8.637232,-1233.6267,-1232.7837,-1233.5254,-1236.2051,
1,5226.0,7.140974,8.633656,-1233.6997,-1232.7971,-1233.5469,-1236.22,
2,5227.0,7.145444,8.626802,-1233.6434,-1232.7804,-1233.5266,-1236.2032,
3,5227.0,7.150808,8.602068,-1233.6232,-1232.7551,-1233.5078,-1236.189,
4,5237.0,7.146338,8.602366,-1233.6625,-1232.762,-1233.5004,-1236.1913,
5,5237.0,7.146636,8.642,-1233.6813,-1232.7806,-1233.5272,-1236.2155,
6,5238.0,7.152,8.65988,-1233.6866,-1232.7944,-1233.5376,-1236.2253,
7,5238.0,7.154384,8.633656,-1233.6414,-1232.7756,-1233.5391,-1236.2163,
-8,5239.0,7.152894,8.582996,-1233.6333,-1232.761,-1233.5024,-1236.1917,
-7,5239.0,7.14306,8.597598,-1233.6104,-1232.7568,-1233.4985,-1236.177,
-6,5266.0,7.139484,8.706666,-1233.7588,-1232.841,-1233.5844,-1236.2646,
-5,5267.0,7.146338,8.671204,-1233.722,-1232.8352,-1233.5659,-1236.2605,
-4,5267.0,7.141272,8.5675,-1233.576,-1232.7393,-1233.4834,-1236.1687,
-3,5268.0,7.137994,8.55111,-1233.5677,-1232.6958,-1233.4377,-1236.1168,
-2,5268.0,7.147828,8.641702,-1233.6282,-1232.7502,-1233.4697,-1236.146,
-1,5269.0,7.143954,8.69564,-1233.7137,-1232.8257,-1233.5618,-1236.2498,
0,5269.0,7.139782,8.647364,-1233.723,-1232.8439,-1233.5802,-1236.2792,
1,5270.0,7.14455,8.586274,-1233.641,-1232.786,-1233.5236,-1236.2157,
2,5270.0,7.152894,8.588062,-1233.6401,-1232.7533,-1233.4911,-1236.1788,
3,5271.0,7.153788,8.640808,-1233.6792,-1232.7885,-1233.5535,-1236.2258,
4,5271.0,7.149914,8.667628,-1233.7355,-1232.8218,-1233.5791,-1236.2733,
5,5272.0,7.14902,8.633656,-1233.7227,-1232.8416,-1233.5862,-1236.2866,
6,5272.0,7.150212,8.599386,-1233.63,-1232.7866,-1233.538,-1236.2244,
7,5273.0,7.143954,8.592234,-1233.6652,-1232.8052,-1233.5579,-1236.2393,
-8,5275.0,7.14455,8.621736,-1233.703,-1232.8046,-1233.5549,-1236.2471,
-7,5276.0,7.152,8.637232,-1233.6931,-1232.7957,-1233.545,-1236.236,
-6,5291.0,7.151404,8.61965,-1233.6813,-1232.7932,-1233.5364,-1236.2328,
-5,5292.0,7.152298,8.612796,-1233.6232,-1232.7614,-1233.5266,-1236.2059,
-4,5292.0,7.153192,8.614286,-1233.672,-1232.7882,-1233.5403,-1236.233,
-3,5293.0,7.148722,8.615776,-1233.6852,-1232.7837,-1233.534,-1236.2214,
-2,5293.0,7.152894,8.6271,-1233.6691,-1232.787,-1233.5343,-1236.213,
-1,5315.0,7.155874,8.616372,-1233.6658,-1232.7968,-1233.554,-1236.2175,
0,5316.0,7.152298,8.61667,-1233.6654,-1232.8137,-1233.5502,-1236.2322,
1,5316.0,7.148722,8.625908,-1233.6794,-1232.8352,-1233.576,-1236.2521,
2,5317.0,7.146338,8.617862,-1233.6458,-1232.8308,-1233.5469,-1236.2521,
3,5318.0,7.15051,8.605942,-1233.6544,-1232.8063,-1233.5454,-1236.2343,
4,5318.0,7.145444,8.600578,-1233.6238,-1232.7723,-1233.5233,-1236.213,
5,5323.0,7.139782,8.61965,-1233.6282,-1232.8048,-1233.5258,-1236.2336,
6,5323.0,7.134716,8.623226,-1233.636,-1232.8058,-1233.5391,-1236.2491,
7,5324.0,7.13412,8.599982,-1233.6389,-1232.8013,-1233.5609,-1236.2316,
-8,5344.0,7.137994,8.585976,-1233.6399,-1232.7694,-1233.5204,-1236.1987,
-7,5345.0,7.131736,8.5841875,-1233.6267,-1232.7756,-1233.531,-1236.2178,
-6,5345.0,7.136206,8.613988,-1233.653,-1232.804,-1233.5391,-1236.2301,
-5,5346.0,7.145444,8.635742,-1233.6678,-1232.8015,-1233.5498,-1236.2283,
-4,5354.0,7.151106,8.616074,-1233.5942,-1232.7649,-1233.5043,-1236.1904,
-3,5355.0,7.148126,8.592234,-1233.5787,-1232.761,-1233.4803,-1236.1874,
-2,5357.0,7.14902,8.589254,-1233.6315,-1232.7822,-1233.518,-1236.1981,
-1,5358.0,7.146338,8.61518,-1233.6902,-1232.7998,-1233.5415,-1236.2285,
0,5359.0,7.14604,8.632762,-1233.7117,-1232.8066,-1233.5573,-1236.2289,
1,5360.0,7.1433578,8.598492,-1233.661,-1232.7941,-1233.5337,-1236.2279,
2,5361.0,7.140676,8.570182,-1233.6228,-1232.775,-1233.5161,-1236.1973,
3,5372.0,7.140676,8.56899,-1233.6323,-1232.781,-1233.5233,-1236.2136,
4,5373.0,7.145742,8.60773,-1233.686,-1232.795,-1233.5305,-1236.2167,
5,5373.0,7.148722,8.616372,-1233.6643,-1232.8058,-1233.5492,-1236.2345,
6,5374.0,7.151106,8.593426,-1233.6238,-1232.798,-1233.538,-1236.2238,
7,5375.0,7.149914,8.569586,-1233.617,-1232.7754,-1233.5016,-1236.1884,
-8,5375.0,7.153192,8.575546,-1233.6276,-1232.7765,-1233.5096,-1236.1821,
-7,5411.0,7.145444,8.59879,-1233.6356,-1232.7938,-1233.5289,-1236.219,
-6,5412.0,7.152596,8.61518,-1233.7051,-1232.8298,-1233.5746,-1236.2521,
-5,5413.0,7.152894,8.58985,-1233.6906,-1232.8212,-1233.5779,-1236.2477,
-4,5417.0,7.15498,8.57495,-1233.6201,-1232.7759,-1233.5382,-1236.2115,
-3,5418.0,7.157662,8.581804,-1233.5996,-1232.7518,-1233.5043,-1236.1809,
-2,5418.0,7.158556,8.610114,-1233.6548,-1232.7673,-1233.5272,-1236.1991,
-1,5419.0,7.16094,8.618756,-1233.658,-1232.7957,-1233.5508,-1236.227,
0,5420.0,7.153788,8.582996,-1233.6437,-1232.8054,-1233.546,-1236.2343,
1,5421.0,7.158854,8.573162,-1233.6288,-1232.7744,-1233.506,-1236.1896,
2,5433.0,7.157066,8.577632,-1233.6217,-1232.7831,-1233.5394,-1236.2134,
3,5434.0,7.15647,8.604452,-1233.6478,-1232.7911,-1233.551,-1236.227,
4,5435.0,7.159152,8.610114,-1233.6681,-1232.7899,-1233.5519,-1236.231,
5,5441.0,7.157662,8.584784,-1233.6044,-1232.7819,-1233.5409,-1236.2074,
6,5442.0,7.16541,8.573162,-1233.6228,-1232.7601,-1233.5057,-1236.1761,
7,5468.0,7.16988,8.589254,-1233.6553,-1232.7593,-1233.5114,-1236.1824,
-8,5469.0,7.161834,8.60922,-1233.618,-1232.7539,-1233.512,-1236.1979,
-7,5475.0,7.16094,8.617266,-1233.6393,-1232.7723,-1233.526,-1236.2095,
-6,5477.0,7.15796,8.587466,-1233.591,-1232.75,-1233.4971,-1236.1842,
-5,5478.0,7.163622,8.575844,-1233.6151,-1232.7175,-1233.4799,-1236.163,
-4,5479.0,7.157066,8.586572,-1233.6724,-1232.7622,-1233.5105,-1236.2035,
-3,5492.0,7.160046,8.603558,-1233.6407,-1232.7723,-1233.512,-1236.196,
-2,5493.0,7.161834,8.605942,-1233.6658,-1232.7837,-1233.5242,-1236.1991,
-1,5494.0,7.16392,8.590744,-1233.6606,-1232.7548,-1233.5107,-1236.1923,
0,5494.0,7.170476,8.585678,-1233.6019,-1232.7568,-1233.5012,-1236.1782,
1,5533.0,7.164218,8.588658,-1233.588,-1232.7858,-1233.518,-1236.2109,
2,5535.0,7.1615357,8.604452,-1233.6089,-1232.7694,-1233.5322,-1236.2155,
3,5535.0,7.164218,8.600876,-1233.6575,-1232.7754,-1233.5289,-1236.2113,
4,5536.0,7.165708,8.587168,-1233.6187,-1232.7524,-1233.5194,-1236.202,
5,5537.0,7.16541,8.581506,-1233.6226,-1232.7357,-1233.5105,-1236.1877,
6,5538.0,7.163026,8.582996,-1233.6089,-1232.7401,-1233.5107,-1236.1772,
7,5540.0,7.16988,8.602664,-1233.6077,-1232.7393,-1233.4911,-1236.1624,
-8,5541.0,7.16541,8.601174,-1233.6136,-1232.7384,-1233.4908,-1236.1776,
-7,5544.0,7.15945,8.581208,-1233.6201,-1232.7661,-1233.513,-1236.2047,
-6,5545.0,7.15647,8.5779295,-1233.6201,-1232.761,-1233.507,-1236.1896,
-5,5545.0,7.164516,8.584784,-1233.6234,-1232.7268,-1233.4923,-1236.1749,
-4,5559.0,7.166006,8.589552,-1233.6538,-1232.7479,-1233.4998,-1236.1886,
-3,5560.0,7.166304,8.594916,-1233.6598,-1232.764,-1233.5251,-1236.1952,
-2,5561.0,7.169284,8.587168,-1233.6416,-1232.764,-1233.5192,-1236.194,
-1,5562.0,7.166006,8.5779295,-1233.6259,-1232.75,-1233.5123,-1236.1803,
0,5562.0,7.167198,8.582102,-1233.658,-1232.7614,-1233.515,-1236.2012,
1,5598.0,7.158854,8.58389,-1233.6604,-1232.7595,-1233.5144,-1236.1865,
2,5600.0,7.166006,8.586274,-1233.6127,-1232.7589,-1233.5033,-1236.1832,
3,5602.0,7.161834,8.570182,-1233.6455,-1232.767,-1233.5084,-1236.1927,
4,5602.0,7.159748,8.568692,-1233.6548,-1232.761,-1233.5078,-1236.1826,
5,5603.0,7.156768,8.57197,-1233.661,-1232.7806,-1233.5308,-1236.2125,
6,5606.0,7.157364,8.580016,-1233.6825,-1232.793,-1233.5411,-1236.2184,
7,5609.0,7.16541,8.590744,-1233.6562,-1232.7819,-1233.534,-1236.2012,
-8,5610.0,7.16839,8.582698,-1233.6073,-1232.7554,-1233.4995,-1236.1797,
-7,5610.0,7.171072,8.585082,-1233.6046,-1232.7405,-1233.483,-1236.169,
-6,5616.0,7.17286,8.58687,-1233.664,-1232.7539,-1233.501,-1236.1821,
-5,5617.0,7.170178,8.600876,-1233.6658,-1232.7812,-1233.5117,-1236.2039,
-4,5618.0,7.169582,8.595512,-1233.6451,-1232.804,-1233.5337,-1236.2227,
-3,5643.0,7.176138,8.593724,-1233.6604,-1232.7816,-1233.5099,-1236.2068,
-2,5645.0,7.176734,8.588956,-1233.6329,-1232.7655,-1233.4846,-1236.1809,
-1,5645.0,7.169582,8.586572,-1233.6172,-1232.7769,-1233.4958,-1236.1749,
0,5648.0,7.173158,8.597598,-1233.607,-1232.7762,-1233.4956,-1236.1752,
1,5651.0,7.167496,8.592234,-1233.6526,-1232.7938,-1233.5096,-1236.196,
2,5651.0,7.163324,8.574652,-1233.6589,-1232.7911,-1233.5173,-1236.1917,
3,5660.0,7.164814,8.583294,-1233.6538,-1232.7806,-1233.5105,-1236.1904,
4,5660.0,7.171966,8.59581,-1233.6038,-1232.7607,-1233.4974,-1236.177,
5,5661.0,7.170178,8.597002,-1233.6083,-1232.7455,-1233.4908,-1236.1677,
6,5691.0,7.171072,8.595214,-1233.6211,-1232.7535,-1233.509,-1236.1779,
7,5692.0,7.169284,8.586274,-1233.591,-1232.742,-1233.5004,-1236.1609,
-8,5693.0,7.16839,8.5841875,-1233.6029,-1232.7583,-1233.5144,-1236.1818,
-7,5694.0,7.170178,8.586274,-1233.6348,-1232.7426,-1233.4995,-1236.1708,
-6,5695.0,7.16988,8.589254,-1233.6052,-1232.7289,-1233.5004,-1236.154,
-5,5697.0,7.174946,8.592234,-1233.636,-1232.7324,-1233.5033,-1236.163,
-4,5699.0,7.167496,8.577334,-1233.6217,-1232.7521,-1233.515,-1236.1752,
-3,5712.0,7.168986,8.582102,-1233.6201,-1232.75,-1233.5272,-1236.1871,
-2,5712.0,7.166304,8.578526,-1233.6011,-1232.7548,-1233.5045,-1236.1791,
-1,5750.0,7.158854,8.575248,-1233.6163,-1232.7509,-1233.4985,-1236.1797,
0,5752.0,7.167496,8.581506,-1233.6097,-1232.7551,-1233.4902,-1236.1805,
1,5753.0,7.165112,8.56899,-1233.5856,-1232.7426,-1233.5018,-1236.1865,
2,5754.0,7.1669,8.574354,-1233.5994,-1232.7595,-1233.5103,-1236.2008,
3,5755.0,7.1669,8.571076,-1233.63,-1232.7682,-1233.5134,-1236.1934,
4,5758.0,7.166602,8.571374,-1233.6309,-1232.7485,-1233.4935,-1236.1805,
5,5759.0,7.16839,8.578824,-1233.6058,-1232.7312,-1233.484,-1236.1514,
6,5762.0,7.166006,8.571672,-1233.6321,-1232.733,-1233.4944,-1236.1704,
7,5763.0,7.160046,8.56452,-1233.6407,-1232.7479,-1233.4995,-1236.1859,
-8,5764.0,7.163026,8.565712,-1233.644,-1232.769,-1233.5093,-1236.2012,
-7,5765.0,7.16243,8.569884,-1233.6414,-1232.7697,-1233.5049,-1236.2008,
-6,5766.0,7.155874,8.56899,-1233.6819,-1232.7852,-1233.532,-1236.2274,
-5,5766.0,7.148126,8.55856,-1233.6705,-1232.7721,-1233.5063,-1236.2103,
-4,5767.0,7.158854,8.5597515,-1233.6244,-1232.7709,-1233.5043,-1236.1985,
-3,5770.0,7.16541,8.5660095,-1233.6172,-1232.768,-1233.5078,-1236.1805,
-2,5771.0,7.165708,8.570182,-1233.6292,-1232.7524,-1233.5084,-1236.1809,
-1,5772.0,7.166006,8.568692,-1233.6478,-1232.7518,-1233.5225,-1236.1997,
0,5800.0,7.163622,8.567798,-1233.6315,-1232.7488,-1233.5055,-1236.1779,
1,5802.0,7.16392,8.573162,-1233.6306,-1232.7607,-1233.5016,-1236.191,
2,5803.0,7.161834,8.56303,-1233.6151,-1232.7446,-1233.498,-1236.191,
3,5804.0,7.160344,8.563626,-1233.5903,-1232.7357,-1233.4855,-1236.1815,
4,5805.0,7.160046,8.56005,-1233.6255,-1232.7604,-1233.4995,-1236.195,
5,5805.0,7.160642,8.561838,-1233.6375,-1232.7653,-1233.4956,-1236.1952,
6,5806.0,7.165708,8.5675,-1233.6014,-1232.7554,-1233.506,-1236.1967,
7,5811.0,7.164516,8.5597515,-1233.6217,-1232.7593,-1233.4911,-1236.1768,
-8,5812.0,7.154384,8.556772,-1233.6366,-1232.7837,-1233.5254,-1236.1979,
-7,5813.0,7.161238,8.562732,-1233.6315,-1232.7756,-1233.5028,-1236.2018,
-6,5814.0,7.157364,8.55409,-1233.6497,-1232.792,-1233.5159,-1236.2142,
-5,5815.0,7.156768,8.556474,-1233.6798,-1232.7917,-1233.5272,-1236.2238,
-4,5847.0,7.162728,8.554388,-1233.6774,-1232.7905,-1233.5406,-1236.233,
-3,5849.0,7.16392,8.559156,-1233.6556,-1232.7858,-1233.5221,-1236.233,
-2,5850.0,7.159748,8.5597515,-1233.6249,-1232.7795,-1233.5278,-1236.2231,
-1,5851.0,7.168092,8.56452,-1233.6124,-1232.7458,-1233.506,-1236.1797,
0,5852.0,7.158854,8.559156,-1233.6178,-1232.7542,-1233.512,-1236.1904,
1,5853.0,7.151702,8.54962,-1233.666,-1232.775,-1233.5337,-1236.2065,
2,5854.0,7.15647,8.553196,-1233.6589,-1232.7655,-1233.5004,-1236.1958,
3,5856.0,7.15051,8.54813,-1233.6556,-1232.75,-1233.4991,-1236.2047,
4,5860.0,7.151404,8.546044,-1233.6377,-1232.7738,-1233.5153,-1236.2277,
5,5861.0,7.153192,8.553792,-1233.6193,-1232.7717,-1233.515,-1236.2076,
6,5861.0,7.155278,8.546044,-1233.6011,-1232.7622,-1233.4989,-1236.2018,
7,5864.0,7.156768,8.54515,-1233.5961,-1232.7566,-1233.4884,-1236.194,
-8,5865.0,7.168092,8.558858,-1233.63,-1232.7684,-1233.5096,-1236.1901,
-7,5899.0,7.163622,8.558262,-1233.6187,-1232.7465,-1233.4989,-1236.1812,
-6,5901.0,7.166602,8.565116,-1233.6089,-1232.7542,-1233.5134,-1236.1946,
-5,5902.0,7.1615357,8.551408,-1233.642,-1232.7744,-1233.5227,-1236.2173,
-4,5905.0,7.157364,8.538594,-1233.6273,-1232.775,-1233.5332,-1236.2194,
-3,5908.0,7.159748,8.54366,-1233.5883,-1232.7736,-1233.5266,-1236.2109,
-2,5909.0,7.15498,8.545448,-1233.6329,-1232.7649,-1233.5144,-1236.1842,
-1,5909.0,7.148126,8.545746,-1233.6488,-1232.7601,-1233.5024,-1236.1809,
0,5914.0,7.154682,8.53621,-1233.6044,-1232.7444,-1233.4786,-1236.1646,
1,5915.0,7.157662,8.537402,-1233.5957,-1232.7198,-1233.4637,-1236.158,
2,5915.0,7.158854,8.539488,-1233.6246,-1232.7572,-1233.4834,-1236.1884,
3,5947.0,7.158854,8.54366,-1233.617,-1232.7535,-1233.4935,-1236.1821,
4,5949.0,7.168688,8.5526,-1233.6172,-1232.7295,-1233.4685,-1236.1588,
5,5950.0,7.172562,8.550514,-1233.5471,-1232.7097,-1233.4619,-1236.1505,
6,5951.0,7.1669,8.546938,-1233.5731,-1232.7128,-1233.4592,-1236.1335,
7,5954.0,7.163026,8.54515,-1233.5817,-1232.7339,-1233.467,-1236.1389,
-8,5954.0,7.16392,8.543958,-1233.5978,-1232.7375,-1233.4792,-1236.165,
-7,5957.0,7.16243,8.54813,-1233.6309,-1232.7574,-1233.5055,-1236.1824,
-6,5958.0,7.159152,8.543958,-1233.6505,-1232.7515,-1233.5146,-1236.1842,
-5,5965.0,7.153192,8.537104,-1233.6196,-1232.7479,-1233.4944,-1236.1646,
-4,5966.0,7.154086,8.534422,-1233.6389,-1232.7593,-1233.5078,-1236.1826,
-3,5967.0,7.153788,8.538296,-1233.6104,-1232.7339,-1233.4944,-1236.1613,
-2,5999.0,7.15349,8.54515,-1233.6193,-1232.7661,-1233.501,-1236.1857,
-1,6000.0,7.152,8.540382,-1233.6143,-1232.773,-1233.5066,-1236.2051,
0,6001.0,7.1615357,8.539786,-1233.5847,-1232.7578,-1233.4935,-1236.1824,
1,6002.0,7.16392,8.541872,-1233.607,-1232.7786,-1233.5248,-1236.2051,
2,6003.0,7.163622,8.544852,-1233.6335,-1232.7643,-1233.5099,-1236.1803,
3,6004.0,7.163026,8.54366,-1233.6366,-1232.7417,-1233.4783,-1236.1592,
4,6008.0,7.159152,8.529952,-1233.5812,-1232.7524,-1233.4977,-1236.1671,
5,6009.0,7.160344,8.53472,-1233.6151,-1232.7601,-1233.4911,-1236.1782,
6,6010.0,7.161834,8.535912,-1233.6389,-1232.7506,-1233.4977,-1236.1981,
7,6011.0,7.1555758,8.531442,-1233.6362,-1232.7529,-1233.4965,-1236.2026,
-8,6024.0,7.162728,8.541574,-1233.6387,-1232.7521,-1233.467,-1236.1725,
-7,6025.0,7.162728,8.532634,-1233.6154,-1232.7434,-1233.4801,-1236.1669,
-6,6026.0,7.16243,8.53174,-1233.587,-1232.7339,-1233.4825,-1236.1735,
-5,6042.0,7.154086,8.526674,-1233.5895,-1232.7384,-1233.4884,-1236.172,
-4,6043.0,7.155874,8.531144,-1233.5632,-1232.7589,-1233.4932,-1236.1871,
-3,6051.0,7.16094,8.53472,-1233.5785,-1232.7473,-1233.5076,-1236.1776,
-2,6052.0,7.156768,8.526674,-1233.6041,-1232.756,-1233.5012,-1236.1826,
-1,6080.0,7.157662,8.520416,-1233.6147,-1232.7264,-1233.4697,-1236.1526,
0,6082.0,7.159748,8.5228,-1233.613,-1232.736,-1233.4795,-1236.1549,
1,6083.0,7.153192,8.513562,-1233.5579,-1232.7423,-1233.4729,-1236.1505,
2,6083.0,7.154086,8.512966,-1233.6234,-1232.7386,-1233.4741,-1236.1772,
3,6087.0,7.156172,8.511476,-1233.6306,-1232.7316,-1233.4786,-1236.1731,
4,6090.0,7.161238,8.517436,-1233.6005,-1232.719,-1233.4735,-1236.1553,
5,6100.0,7.1555758,8.515648,-1233.591,-1232.7289,-1233.4712,-1236.1505,
6,6101.0,7.156172,8.51833,-1233.5781,-1232.7151,-1233.458,-1236.1475,
7,6102.0,7.157364,8.521608,-1233.6058,-1232.731,-1233.4867,-1236.1633,
-8,6129.0,7.155278,8.52131,-1233.5835,-1232.7225,-1233.4786,-1236.1669,
-7,6130.0,7.150808,8.5108795,-1233.6315,-1232.7444,-1233.484,-1236.1768,
-6,6131.0,7.154086,8.515052,-1233.661,-1232.7634,-1233.4985,-1236.1857,
-5,6132.0,7.159748,8.511774,-1233.6222,-1232.7562,-1233.489,-1236.1785,
-4,6132.0,7.154086,8.514158,-1233.6511,-1232.767,-1233.5016,-1236.1842,
-3,6136.0,7.156768,8.518926,-1233.6154,-1232.7521,-1233.5024,-1236.1985,
-2,6137.0,7.158258,8.513264,-1233.5913,-1232.7072,-1233.4735,-1236.1555,
-1,6137.0,7.156172,8.512072,-1233.612,-1232.7181,-1233.4941,-1236.1824,
0,6138.0,7.158556,8.512072,-1233.6136,-1232.7467,-1233.4968,-1236.1954,
1,6154.0,7.15647,8.516244,-1233.6464,-1232.7631,-1233.4995,-1236.2122,
2,6155.0,7.149616,8.505516,-1233.6124,-1232.7554,-1233.5239,-1236.2012,
3,6156.0,7.151404,8.508496,-1233.6079,-1232.7616,-1233.5107,-1236.194,
4,6156.0,7.153192,8.506112,-1233.6375,-1232.7631,-1233.5117,-1236.1824,
5,6157.0,7.15796,8.512966,-1233.5835,-1232.7378,-1233.4894,-1236.1779,
6,6173.0,7.152894,8.511774,-1233.617,-1232.7375,-1233.4927,-1236.1812,
7,6174.0,7.157662,8.50939,-1233.6368,-1232.7446,-1233.4927,-1236.177,
-8,6175.0,7.15498,8.501642,-1233.6302,-1232.7375,-1233.4772,-1236.1698,
-7,6175.0,7.1493177,8.506112,-1233.6068,-1232.7217,-1233.4846,-1236.1729,
-6,6176.0,7.145742,8.502536,-1233.6095,-1232.7146,-1233.4661,-1236.1567,
-5,6184.0,7.144848,8.498364,-1233.6298,-1232.7393,-1233.4962,-1236.1859,
-4,6184.0,7.146338,8.500152,-1233.6079,-1232.738,-1233.4896,-1236.183,
-3,6185.0,7.1493177,8.499258,-1233.6068,-1232.7211,-1233.4681,-1236.1439,
-2,6185.0,7.149914,8.498364,-1233.5883,-1232.7119,-1233.4619,-1236.1487,
-1,6186.0,7.145444,8.495682,-1233.605,-1232.6991,-1233.4545,-1236.1416,
0,6186.0,7.14753,8.499556,-1233.5752,-1232.7289,-1233.4661,-1236.1609,
1,6204.0,7.1493177,8.498662,-1233.594,-1232.7423,-1233.4803,-1236.1758,
2,6210.0,7.14157,8.495384,-1233.619,-1232.7616,-1233.5016,-1236.1927,
3,6211.0,7.1493177,8.49747,-1233.6089,-1232.7467,-1233.5012,-1236.1857,
4,6211.0,7.14604,8.490318,-1233.6213,-1232.7471,-1233.4867,-1236.1821,
5,6212.0,7.151404,8.496278,-1233.611,-1232.7274,-1233.4768,-1236.1666,
6,6212.0,7.144252,8.489424,-1233.5969,-1232.7375,-1233.4661,-1236.1636,
7,6213.0,7.1370997,8.483464,-1233.5856,-1232.7378,-1233.4708,-1236.1642,
-8,6216.0,7.139782,8.48406,-1233.5978,-1232.7482,-1233.4846,-1236.1848,
-7,6217.0,7.137696,8.477206,-1233.6196,-1232.7411,-1233.4954,-1236.1752,
-6,6219.0,7.13859,8.483166,-1233.6112,-1232.7657,-1233.5006,-1236.1863,
-5,6219.0,7.144848,8.483464,-1233.5901,-1232.7521,-1233.501,-1236.1799,
-4,6220.0,7.145742,8.481974,-1233.591,-1232.7264,-1233.4729,-1236.1615,
-3,6220.0,7.14753,8.492702,-1233.5626,-1232.7434,-1233.4819,-1236.1741,
-2,6234.0,7.144848,8.487934,-1233.5895,-1232.7568,-1233.507,-1236.194,
-1,6234.0,7.139782,8.480484,-1233.6127,-1232.7756,-1233.5225,-1236.2107,
0,6235.0,7.148722,8.488828,-1233.6461,-1232.7825,-1233.5438,-1236.2238,
1,6235.0,7.1493177,8.493,-1233.6521,-1232.7744,-1233.5266,-1236.2008,
2,6236.0,7.151404,8.492404,-1233.6478,-1232.7709,-1233.5107,-1236.1927,
3,6236.0,7.151702,8.493894,-1233.6259,-1232.7471,-1233.49,-1236.1708,
4,6237.0,7.145146,8.486146,-1233.5802,-1232.7432,-1233.4938,-1236.1952,
5,6237.0,7.136802,8.476312,-1233.6302,-1232.7509,-1233.5132,-1236.1946,
6,6264.0,7.133822,8.470054,-1233.6705,-1232.7551,-1233.5016,-1236.1925,
7,6265.0,7.14157,8.480484,-1233.6729,-1232.7748,-1233.5134,-1236.1981,
-8,6265.0,7.14604,8.48257,-1233.6494,-1232.7849,-1233.5212,-1236.1913,
-7,6266.0,7.142762,8.48406,-1233.6646,-1232.7845,-1233.512,-1236.1788,
-6,6267.0,7.140974,8.47661,-1233.6372,-1232.7828,-1233.5194,-1236.188,
-5,6267.0,7.141868,8.478398,-1233.6029,-1232.812,-1233.5293,-1236.2211,
-4,6268.0,7.14008,8.473034,-1233.63,-1232.7849,-1233.5415,-1236.2169,
-3,6269.0,7.132034,8.468862,-1233.684,-1232.8087,-1233.5475,-1236.2349,
-2,6271.0,7.140676,8.481974,-1233.6362,-1232.7723,-1233.5132,-1236.1844,
-1,6272.0,7.144252,8.485252,-1233.6089,-1232.7485,-1233.4852,-1236.166,
0,6272.0,7.13859,8.4781,-1233.5903,-1232.7432,-1233.4807,-1236.1526,
1,6273.0,7.13561,8.477802,-1233.6083,-1232.7781,-1233.5126,-1236.1853,
2,6273.0,7.141868,8.477802,-1233.5969,-1232.7781,-1233.5078,-1236.1917,
3,6284.0,7.138888,8.475716,-1233.612,-1232.7899,-1233.526,-1236.2074,
4,6285.0,7.142166,8.47512,-1233.6292,-1232.8093,-1233.5266,-1236.2012,
5,6286.0,7.141272,8.476908,-1233.5955,-1232.792,-1233.5231,-1236.189,
6,6286.0,7.141868,8.480782,-1233.5967,-1232.7742,-1233.515,-1236.2115,
7,6287.0,7.144848,8.47661,-1233.5874,-1232.7775,-1233.5161,-1236.1853,
-8,6312.0,7.140974,8.478696,-1233.6073,-1232.7684,-1233.5171,-1236.1758,
-7,6313.0,7.1370997,8.470352,-1233.6321,-1232.7765,-1233.5215,-1236.1919,
-6,6314.0,7.141272,8.47512,-1233.6703,-1232.8031,-1233.5308,-1236.2196,
-5,6314.0,7.139484,8.478696,-1233.6571,-1232.8073,-1233.5406,-1236.2256,
-4,6314.0,7.140974,8.4739275,-1233.6023,-1232.7765,-1233.5225,-1236.1923,
-3,6315.0,7.1433578,8.47959,-1233.6345,-1232.768,-1233.534,-1236.1874,
-2,6317.0,7.14306,8.47959,-1233.5969,-1232.781,-1233.5254,-1236.1985,
-1,6319.0,7.147232,8.4781,-1233.649,-1232.787,-1233.5477,-1236.2223,
0,6319.0,7.14902,8.479292,-1233.6786,-1232.7988,-1233.5444,-1236.2146,
1,6320.0,7.147232,8.477802,-1233.6836,-1232.7893,-1233.5326,-1236.2074,
2,6320.0,7.14753,8.478994,-1233.6681,-1232.7903,-1233.5403,-1236.2142,
3,6321.0,7.143656,8.481378,-1233.6631,-1232.7961,-1233.5349,-1236.213,
4,6334.0,7.136504,8.476014,-1233.6711,-1232.7903,-1233.5204,-1236.214,
5,6335.0,7.130544,8.477504,-1233.664,-1232.8015,-1233.5316,-1236.2188,
6,6335.0,7.133226,8.473332,-1233.6703,-1232.8129,-1233.5504,-1236.2303,
7,6336.0,7.140676,8.478398,-1233.684,-1232.8105,-1233.5444,-1236.2231,
-8,6336.0,7.143954,8.478994,-1233.6395,-1232.7908,-1233.5198,-1236.2039,
-7,6337.0,7.142464,8.478994,-1233.6312,-1232.7748,-1233.5289,-1236.195,
-6,6337.0,7.14753,8.484358,-1233.6139,-1232.7765,-1233.526,-1236.1842,
-5,6363.0,7.14455,8.48257,-1233.6112,-1232.7688,-1233.498,-1236.1702,
-4,6364.0,7.142762,8.481676,-1233.6451,-1232.7849,-1233.5225,-1236.1904,
-3,6365.0,7.152298,8.48406,-1233.647,-1232.7634,-1233.5132,-1236.1884,
-2,6365.0,7.148722,8.484954,-1233.6199,-1232.7798,-1233.5063,-1236.1892,
-1,6366.0,7.143656,8.47512,-1233.6329,-1232.7798,-1233.5206,-1236.1934,
0,6366.0,7.14306,8.471544,-1233.6422,-1232.7732,-1233.5204,-1236.1958,
1,6368.0,7.141272,8.481974,-1233.6536,-1232.7667,-1233.5153,-1236.195,
2,6369.0,7.138292,8.47512,-1233.6836,-1232.7971,-1233.5442,-1236.2184,
3,6370.0,7.139186,8.474226,-1233.689,-1232.8054,-1233.5599,-1236.2217,
4,6371.0,7.147232,8.475716,-1233.7102,-1232.8015,-1233.5438,-1236.2202,
5,6371.0,7.148126,8.481676,-1233.6879,-1232.7866,-1233.5316,-1236.2045,
6,6385.0,7.152596,8.486146,-1233.6575,-1232.7721,-1233.5233,-1236.1923,
7,6386.0,7.153192,8.483762,-1233.6031,-1232.7822,-1233.5299,-1236.1973,
-8,6386.0,7.152596,8.481974,-1233.6652,-1232.7723,-1233.5204,-1236.194,
-7,6387.0,7.14753,8.478696,-1233.672,-1232.8027,-1233.5513,-1236.2086,
-6,6413.0,7.15349,8.479888,-1233.6425,-1232.7988,-1233.5397,-1236.1985,
-5,6420.0,7.143954,8.472736,-1233.6699,-1232.795,-1233.5332,-1236.2103,
-4,6420.0,7.143656,8.472438,-1233.6627,-1232.7819,-1233.5258,-1236.1844,
-3,6439.0,7.147232,8.479888,-1233.6664,-1232.764,-1233.509,-1236.1865,
-2,6440.0,7.143656,8.477206,-1233.6562,-1232.7593,-1233.5165,-1236.1958,
-1,6440.0,7.143656,8.471544,-1233.6234,-1232.786,-1233.5417,-1236.2098,
0,6455.0,7.14157,8.468862,-1233.6964,-1232.8009,-1233.5483,-1236.225,
1,6456.0,7.14753,8.4781,-1233.6947,-1232.7988,-1233.5355,-1236.2065,
2,6457.0,7.150808,8.474524,-1233.6356,-1232.7622,-1233.5194,-1236.1755,
3,6457.0,7.151106,8.477802,-1233.6294,-1232.7502,-1233.5033,-1236.1666,
4,6458.0,7.151106,8.4739275,-1233.6298,-1232.7626,-1233.5001,-1236.1737,
5,6458.0,7.150212,8.47959,-1233.6372,-1232.7643,-1233.5114,-1236.1865,
6,6470.0,7.146338,8.469756,-1233.6589,-1232.7786,-1233.5278,-1236.1913,
7,6471.0,7.146338,8.466478,-1233.6815,-1232.7858,-1233.5469,-1236.2074,
-8,6471.0,7.144252,8.462902,-1233.6575,-1232.7777,-1233.534,-1236.1898,
-7,6500.0,7.14306,8.463498,-1233.616,-1232.7727,-1233.5206,-1236.183,
-6,6502.0,7.146934,8.471544,-1233.6562,-1232.7542,-1233.5082,-1236.1586,
-5,6503.0,7.141272,8.465584,-1233.6276,-1232.7566,-1233.5225,-1236.1803,
-4,6504.0,7.149914,8.464392,-1233.644,-1232.775,-1233.5206,-1236.185,
-3,6506.0,7.1433578,8.465286,-1233.644,-1232.7781,-1233.5251,-1236.1869,
-2,6508.0,7.14455,8.471246,-1233.6827,-1232.7924,-1233.5258,-1236.2072,
-1,6512.0,7.153192,8.475418,-1233.7015,-1232.7878,-1233.5295,-1236.2012,
0,6513.0,7.150808,8.471842,-1233.6298,-1232.7914,-1233.5275,-1236.2039,
1,6514.0,7.155278,8.469756,-1233.6553,-1232.7736,-1233.5194,-1236.1853,
2,6515.0,7.14455,8.465286,-1233.6631,-1232.7917,-1233.5409,-1236.1979,
3,6517.0,7.15051,8.468266,-1233.653,-1232.795,-1233.5367,-1236.2045,
4,6518.0,7.142464,8.459326,-1233.7003,-1232.7998,-1233.5483,-1236.2074,
5,6521.0,7.137696,8.4557495,-1233.6511,-1232.7968,-1233.5469,-1236.225,
6,6523.0,7.140676,8.447108,-1233.653,-1232.7885,-1233.5427,-1236.2169,
7,6569.0,7.148126,8.448896,-1233.6777,-1232.8102,-1233.5612,-1236.2363,
-8,6573.0,7.149914,8.45873,-1233.6553,-1232.7935,-1233.5525,-1236.2227,
-7,6574.0,7.143656,8.443234,-1233.653,-1232.8132,-1233.5444,-1236.22,
-6,6575.0,7.144848,8.444426,-1233.6598,-1232.8135,-1233.557,-1236.2142,
-5,6578.0,7.157066,8.435486,-1233.6738,-1232.8015,-1233.5481,-1236.2289,
-4,6579.0,7.164814,8.432804,-1233.675,-1232.8135,-1233.5618,-1236.2316,
-3,6580.0,7.138888,8.398534,-1233.6875,-1232.8021,-1233.5519,-1236.2107,
-2,6581.0,7.126968,8.380356,-1233.6833,-1232.8186,-1233.5657,-1236.2336,
-1,6582.0,7.122498,8.346086,-1233.714,-1232.8373,-1233.5868,-1236.2482,
0,6583.0,7.088824,8.3589,-1233.7516,-1232.8677,-1233.6145,-1236.2661,
1,6589.0,7.071242,8.347576,-1233.8452,-1232.9032,-1233.661,-1236.3254,
2,6590.0,7.05366,8.279632,-1233.8457,-1232.9365,-1233.6896,-1236.36,
3,6590.0,7.034588,8.16967,-1233.7892,-1232.9324,-1233.6902,-1236.3517,
4,6591.0,7.005086,8.092786,-1233.8347,-1232.9512,-1233.695,-1236.3594,
5,6592.0,6.9657497,8.099044,-1233.8901,-1233.0206,-1233.7557,-1236.43,
6,6628.0,6.949956,8.090998,-1233.953,-1233.0889,-1233.821,-1236.4994,
7,6630.0,6.913004,8.013518,-1234.0323,-1233.1523,-1233.8982,-1236.5591,
-8,6631.0,6.8838,7.9417,-1233.9912,-1233.1487,-1233.8932,-1236.5662,
-7,6632.0,6.874264,7.877332,-1233.9939,-1233.1362,-1233.891,-1236.5513,
-6,6633.0,6.859662,7.870478,-1234.0505,-1233.178,-1233.9313,-1236.5897,
-5,6638.0,6.8617477,7.916072,-1234.0547,-1233.186,-1233.9509,-1236.5975,
-4,6639.0,6.85847,7.8469357,-1234.0704,-1233.2146,-1233.965,-1236.6348,
-3,6641.0,6.836716,7.823692,-1234.1014,-1233.2283,-1233.9875,-1236.654,
-2,6642.0,6.832842,7.819818,-1234.0636,-1233.2253,-1233.9712,-1236.6407,
-1,6643.0,6.851318,7.808196,-1234.0874,-1233.2239,-1233.976,-1236.6302,
0,6677.0,6.823902,7.795382,-1234.1271,-1233.2485,-1234.0001,-1236.6592,
1,6679.0,6.824796,7.792104,-1234.1232,-1233.2638,-1234.0103,-1236.68,
2,6680.0,6.83314,7.788528,-1234.1256,-1233.2709,-1234.013,-1236.689,
3,6681.0,6.826882,7.767072,-1234.1062,-1233.259,-1233.9977,-1236.6794,
4,6681.0,6.81377,7.754258,-1234.1327,-1233.29,-1234.0371,-1236.7009,
5,6687.0,6.800062,7.743232,-1234.1823,-1233.2905,-1234.0415,-1236.7032,
6,6688.0,6.814068,7.756046,-1234.1843,-1233.2957,-1234.0367,-1236.7161,
7,6689.0,6.82271,7.754854,-1234.1411,-1233.2816,-1234.0225,-1236.6985,
-8,6690.0,6.8250937,7.750086,-1234.1151,-1233.2605,-1234.0094,-1236.6818,
-7,6698.0,6.811982,7.738166,-1234.082,-1233.2719,-1234.0067,-1236.6782,
-6,6702.0,6.815856,7.732802,-1234.1337,-1233.2849,-1234.0204,-1236.7012,
-5,6703.0,6.81973,7.735484,-1234.1405,-1233.2878,-1234.0457,-1236.7063,
